nm, %T
800.000000, 43.320400
799.000000, 43.352500
798.000000, 43.308200
797.000000, 43.251400
796.000000, 43.320000
795.000000, 43.152400
794.000000, 43.112500
793.000000, 43.073300
792.000000, 43.064200
791.000000, 43.062100
790.000000, 43.015800
789.000000, 42.981600
788.000000, 43.002300
787.000000, 42.892800
786.000000, 42.891300
785.000000, 42.808600
784.000000, 42.782600
783.000000, 42.728400
782.000000, 42.655800
781.000000, 42.648900
780.000000, 42.573600
779.000000, 42.591200
778.000000, 42.627200
777.000000, 42.582300
776.000000, 42.551300
775.000000, 42.498700
774.000000, 42.441000
773.000000, 42.455200
772.000000, 42.396300
771.000000, 42.356900
770.000000, 42.364000
769.000000, 42.293300
768.000000, 42.302300
767.000000, 42.223200
766.000000, 42.219100
765.000000, 42.169200
764.000000, 42.227600
763.000000, 42.110900
762.000000, 42.121300
761.000000, 42.080300
760.000000, 42.005300
759.000000, 42.048300
758.000000, 42.001500
757.000000, 41.993700
756.000000, 41.995200
755.000000, 41.928900
754.000000, 41.877600
753.000000, 41.854200
752.000000, 41.876200
751.000000, 41.827000
750.000000, 41.780000
749.000000, 41.720800
748.000000, 41.731600
747.000000, 41.720900
746.000000, 41.727700
745.000000, 41.686300
744.000000, 41.649200
743.000000, 41.611500
742.000000, 41.593000
741.000000, 41.550000
740.000000, 41.524900
739.000000, 41.557900
738.000000, 41.535500
737.000000, 41.497600
736.000000, 41.447500
735.000000, 41.466200
734.000000, 41.437700
733.000000, 41.399500
732.000000, 41.395700
731.000000, 41.384300
730.000000, 41.339200
729.000000, 41.343900
728.000000, 41.332400
727.000000, 41.327700
726.000000, 41.315200
725.000000, 41.281400
724.000000, 41.250900
723.000000, 41.243000
722.000000, 41.257800
721.000000, 41.239500
720.000000, 41.213800
719.000000, 41.225400
718.000000, 41.195000
717.000000, 41.196500
716.000000, 41.173200
715.000000, 41.129100
714.000000, 41.119600
713.000000, 41.076300
712.000000, 41.055000
711.000000, 41.053200
710.000000, 41.067000
709.000000, 41.061600
708.000000, 41.041500
707.000000, 41.000300
706.000000, 41.017600
705.000000, 40.995500
704.000000, 40.986700
703.000000, 40.987500
702.000000, 40.979700
701.000000, 40.934300
700.000000, 40.906400
699.000000, 40.869000
698.000000, 40.848000
697.000000, 40.833600
696.000000, 40.841700
695.000000, 40.866500
694.000000, 40.856800
693.000000, 40.852900
692.000000, 40.859900
691.000000, 40.771800
690.000000, 40.609900
689.000000, 40.597800
688.000000, 40.605800
687.000000, 40.604100
686.000000, 40.598200
685.000000, 40.552300
684.000000, 40.577100
683.000000, 40.579500
682.000000, 40.539600
681.000000, 40.489000
680.000000, 40.473600
679.000000, 40.496700
678.000000, 40.510000
677.000000, 40.486100
676.000000, 40.482000
675.000000, 40.474300
674.000000, 40.446300
673.000000, 40.439400
672.000000, 40.446000
671.000000, 40.412700
670.000000, 40.398200
669.000000, 40.386000
668.000000, 40.375900
667.000000, 40.381900
666.000000, 40.391500
665.000000, 40.375200
664.000000, 40.359900
663.000000, 40.361200
662.000000, 40.343400
661.000000, 40.340800
660.000000, 40.338800
659.000000, 40.325300
658.000000, 40.333300
657.000000, 40.328000
656.000000, 40.282500
655.000000, 40.251600
654.000000, 40.233500
653.000000, 40.220300
652.000000, 40.220800
651.000000, 40.212300
650.000000, 40.193500
649.000000, 40.195400
648.000000, 40.207400
647.000000, 40.190200
646.000000, 40.197900
645.000000, 40.206000
644.000000, 40.186800
643.000000, 40.184600
642.000000, 40.190700
641.000000, 40.173100
640.000000, 40.141900
639.000000, 40.133100
638.000000, 40.126800
637.000000, 40.137300
636.000000, 40.148200
635.000000, 40.154300
634.000000, 40.174800
633.000000, 40.176900
632.000000, 40.147700
631.000000, 40.147600
630.000000, 40.146500
629.000000, 40.106400
628.000000, 40.083800
627.000000, 40.075600
626.000000, 40.072600
625.000000, 40.054700
624.000000, 40.060500
623.000000, 40.054100
622.000000, 40.057600
621.000000, 40.050200
620.000000, 40.041500
619.000000, 40.045600
618.000000, 40.047500
617.000000, 40.043300
616.000000, 40.041100
615.000000, 40.016000
614.000000, 39.993500
613.000000, 39.995500
612.000000, 40.028900
611.000000, 40.050300
610.000000, 40.034000
609.000000, 40.025400
608.000000, 40.020100
607.000000, 39.990500
606.000000, 40.009000
605.000000, 40.053200
604.000000, 40.045300
603.000000, 40.014100
602.000000, 40.017900
601.000000, 40.015900
600.000000, 40.013400
599.000000, 39.988800
598.000000, 40.024300
597.000000, 40.014000
596.000000, 40.009700
595.000000, 40.038600
594.000000, 40.036500
593.000000, 40.019000
592.000000, 40.010600
591.000000, 40.013400
590.000000, 39.986600
589.000000, 39.977600
588.000000, 39.978100
587.000000, 40.025200
586.000000, 40.021400
585.000000, 40.008500
584.000000, 39.999400
583.000000, 40.016000
582.000000, 40.001400
581.000000, 40.012000
580.000000, 40.023700
579.000000, 40.089700
578.000000, 40.094200
577.000000, 40.071600
576.000000, 40.074800
575.000000, 40.076200
574.000000, 40.071000
573.000000, 40.072500
572.000000, 40.085000
571.000000, 40.087100
570.000000, 40.128000
569.000000, 40.137900
568.000000, 40.171000
567.000000, 40.218000
566.000000, 40.238100
565.000000, 40.240300
564.000000, 40.307000
563.000000, 40.337200
562.000000, 40.228000
561.000000, 40.180500
560.000000, 40.177700
559.000000, 40.173600
558.000000, 40.223400
557.000000, 40.249100
556.000000, 40.285000
555.000000, 40.289300
554.000000, 40.293200
553.000000, 40.314900
552.000000, 40.333300
551.000000, 40.353900
550.000000, 40.379200
549.000000, 40.412200
548.000000, 40.459800
547.000000, 40.474800
546.000000, 40.489800
545.000000, 40.503700
544.000000, 40.507200
543.000000, 40.543700
542.000000, 40.522200
541.000000, 40.542700
540.000000, 40.591200
539.000000, 40.591600
538.000000, 40.637900
537.000000, 40.693700
536.000000, 40.698800
535.000000, 40.675300
534.000000, 40.690500
533.000000, 40.672200
532.000000, 40.715700
531.000000, 40.683500
530.000000, 40.713800
529.000000, 40.737400
528.000000, 40.747200
527.000000, 40.789300
526.000000, 40.778600
525.000000, 40.837300
524.000000, 40.866700
523.000000, 40.855800
522.000000, 40.857300
521.000000, 40.829000
520.000000, 40.833700
519.000000, 40.881300
518.000000, 40.879900
517.000000, 40.876300
516.000000, 40.831000
515.000000, 40.911700
514.000000, 40.869900
513.000000, 40.849100
512.000000, 40.836400
511.000000, 40.857700
510.000000, 40.794900
509.000000, 40.817600
508.000000, 40.786900
507.000000, 40.776800
506.000000, 40.830300
505.000000, 40.775700
504.000000, 40.733300
503.000000, 40.736100
502.000000, 40.691100
501.000000, 40.754400
500.000000, 40.726300
499.000000, 40.693900
498.000000, 40.678400
497.000000, 40.641700
496.000000, 40.648700
495.000000, 40.687400
494.000000, 40.658900
493.000000, 40.657000
492.000000, 40.615600
491.000000, 40.660600
490.000000, 40.622400
489.000000, 40.633800
488.000000, 40.669100
487.000000, 40.689600
486.000000, 40.665900
485.000000, 40.691200
484.000000, 40.737100
483.000000, 40.815000
482.000000, 40.844700
481.000000, 40.869600
480.000000, 40.825400
479.000000, 40.830600
478.000000, 40.808600
477.000000, 40.892900
476.000000, 40.937700
475.000000, 40.923000
474.000000, 40.902100
473.000000, 40.955900
472.000000, 40.987400
471.000000, 40.961100
470.000000, 40.928900
469.000000, 40.983200
468.000000, 41.036700
467.000000, 41.008900
466.000000, 41.017100
465.000000, 41.007000
464.000000, 41.011500
463.000000, 41.007800
462.000000, 40.985800
461.000000, 40.985800
460.000000, 40.986100
459.000000, 41.041500
458.000000, 41.009700
457.000000, 40.996200
456.000000, 40.994100
455.000000, 40.983500
454.000000, 40.967600
453.000000, 40.980000
452.000000, 41.023500
451.000000, 41.003600
450.000000, 40.993800
449.000000, 41.002900
448.000000, 40.991900
447.000000, 40.977200
446.000000, 40.943100
445.000000, 40.941300
444.000000, 40.913600
443.000000, 40.974300
442.000000, 41.045300
441.000000, 41.069300
440.000000, 41.069400
439.000000, 41.134900
438.000000, 41.210600
437.000000, 41.182100
436.000000, 41.217700
435.000000, 41.237400
434.000000, 41.270000
433.000000, 41.255500
432.000000, 41.240900
431.000000, 41.293000
430.000000, 41.325700
429.000000, 41.364100
428.000000, 41.377100
427.000000, 41.362000
426.000000, 41.372900
425.000000, 41.423300
424.000000, 41.497200
423.000000, 41.524300
422.000000, 41.483800
421.000000, 41.520600
420.000000, 41.585900
419.000000, 41.652800
418.000000, 41.660800
417.000000, 41.615700
416.000000, 41.641400
415.000000, 41.669000
414.000000, 41.713800
413.000000, 41.762500
412.000000, 41.772100
411.000000, 41.789700
410.000000, 41.828500
409.000000, 41.889600
408.000000, 41.912100
407.000000, 41.940900
406.000000, 42.013400
405.000000, 42.029200
404.000000, 42.001500
403.000000, 42.002900
402.000000, 42.053500
401.000000, 42.083500
400.000000, 42.098700
399.000000, 42.132100
398.000000, 42.150300
397.000000, 42.181600
396.000000, 42.209900
395.000000, 42.223900
394.000000, 42.235800
393.000000, 42.303700
392.000000, 42.367000
391.000000, 42.383100
390.000000, 42.352300
389.000000, 42.350800
388.000000, 42.383700
387.000000, 42.453600
386.000000, 42.494500
385.000000, 42.503100
384.000000, 42.525800
383.000000, 42.548800
382.000000, 42.561700
381.000000, 42.578400
380.000000, 42.608200
379.000000, 40.540500
378.000000, 38.268200
377.000000, 38.544200
376.000000, 38.756400
375.000000, 38.835300
374.000000, 39.037100
373.000000, 39.219400
372.000000, 39.360900
371.000000, 39.465400
370.000000, 39.581000
369.000000, 39.663800
368.000000, 39.567600
367.000000, 39.568200
366.000000, 39.726200
365.000000, 39.825100
364.000000, 39.889000
363.000000, 39.920800
362.000000, 39.906400
361.000000, 39.927100
360.000000, 39.954900
359.000000, 39.946100
358.000000, 40.028300
357.000000, 40.137600
356.000000, 40.125500
355.000000, 40.156300
354.000000, 40.206900
353.000000, 40.181400
352.000000, 40.153400
351.000000, 40.151900
350.000000, 40.277000
349.000000, 40.387800
348.000000, 40.312700
347.000000, 40.248800
346.000000, 40.285900
345.000000, 40.329500
344.000000, 40.350300
343.000000, 40.346000
342.000000, 40.261100
341.000000, 40.195700
340.000000, 40.245600
339.000000, 40.369000
338.000000, 40.390300
337.000000, 40.295100
336.000000, 40.263800
335.000000, 40.291800
334.000000, 40.406600
333.000000, 40.406800
332.000000, 40.353600
331.000000, 40.435200
330.000000, 40.451300
329.000000, 40.424000
328.000000, 40.409100
327.000000, 40.565100
326.000000, 40.587100
325.000000, 40.450600
324.000000, 40.478200
323.000000, 40.487300
322.000000, 40.680700
321.000000, 40.643700
320.000000, 40.594800
319.000000, 46.127200
318.000000, 48.741600
317.000000, 48.735900
316.000000, 48.717400
315.000000, 48.725500
314.000000, 48.759700
313.000000, 48.770200
312.000000, 48.722000
311.000000, 48.743300
310.000000, 48.727400
309.000000, 48.704200
308.000000, 48.698600
307.000000, 48.736200
306.000000, 48.747500
305.000000, 48.712600
304.000000, 48.729100
303.000000, 48.767200
302.000000, 48.712500
301.000000, 48.693500
300.000000, 48.694600
299.000000, 48.710300
298.000000, 48.687200
297.000000, 48.710300
296.000000, 48.654700
295.000000, 48.643300
294.000000, 48.725400
293.000000, 48.710600
292.000000, 48.642500
291.000000, 48.636000
290.000000, 48.644400
289.000000, 48.669200
288.000000, 48.613700
287.000000, 48.687900
286.000000, 48.631300
285.000000, 48.585700
284.000000, 48.596100
283.000000, 48.547700
282.000000, 48.513300
281.000000, 48.472700
280.000000, 48.388500
279.000000, 48.336000
278.000000, 48.331200
277.000000, 48.265300
276.000000, 48.237200
275.000000, 48.155400
274.000000, 48.135800
273.000000, 48.094400
272.000000, 48.137000
271.000000, 48.076400
270.000000, 48.069400
269.000000, 48.052000
268.000000, 48.016200
267.000000, 47.990800
266.000000, 47.930300
265.000000, 47.910100
264.000000, 48.042700
263.000000, 47.972000
262.000000, 47.872600
261.000000, 47.875200
260.000000, 47.804700
259.000000, 47.790200
258.000000, 47.647200
257.000000, 47.581300
256.000000, 47.562000
255.000000, 47.560600
254.000000, 47.452900
253.000000, 47.440900
252.000000, 47.392100
251.000000, 47.327100
250.000000, 47.241000
249.000000, 47.274500
248.000000, 47.243900
247.000000, 47.268100
246.000000, 47.173500
245.000000, 47.038200
244.000000, 47.064700
243.000000, 47.039000
242.000000, 46.972400
241.000000, 47.069600
240.000000, 47.017500
239.000000, 47.002200
238.000000, 47.069100
237.000000, 47.037200
236.000000, 47.011900
235.000000, 47.025800
234.000000, 46.992200
233.000000, 46.955900
232.000000, 46.960300
231.000000, 46.939300
230.000000, 47.058100
229.000000, 47.001600
228.000000, 46.979100
227.000000, 46.878500
226.000000, 47.011100
225.000000, 46.993600
224.000000, 46.899700
223.000000, 46.907600
222.000000, 46.822300
221.000000, 46.781900
220.000000, 46.805900
219.000000, 46.676400
218.000000, 46.626100
217.000000, 46.627900
216.000000, 46.465900
215.000000, 46.384200
214.000000, 46.344200
213.000000, 46.292200
212.000000, 46.232300
211.000000, 46.105500
210.000000, 46.151700
209.000000, 46.183500
208.000000, 45.912200
207.000000, 45.958700
206.000000, 45.896100
205.000000, 45.879700
204.000000, 45.737100
203.000000, 45.783600
202.000000, 45.775900
201.000000, 45.774900
200.000000, 45.794600
