301
200
800
3
128
2
1.21
1.18
1.17001
1.06001
.940002
1.13
1.03001
1.09001
1.02
1.03001
.880005
.980011
.940002
.900009
.920013
.930008
.890015
.900009
.87001
.830002
.840011
.830002
.790008
.750015
.770004
.780014
.750015
.730011
.740005
.680008
.680008
.680008
.670013
.670013
.660004
.62001
.650009
.640015
.670013
.670013
.680008
.690002
.680008
.690002
.700012
.670013
.690002
.670013
.670013
.680008
.670013
.670013
.650009
.640015
.630005
.630005
.920013
2.44
6.67001
14.08
20.56
26.74
31.4
35.37
39.24
41.9
43.98
46.56
48.76
50.52
51.96
54.43
55.88
56.8
58.3
59.88
60.82
61.54
62.4
63.5
64.27
64.89
65.89
65.85
67.16
67.08
66.77
67.87
67.96
68.5
68.46
69.28
69
69.22
69.19
70.05
69.9
69.91
69.87
70.23
70.07
70.47
70.62
70.8
70.62
70.97
70.89
71.07
71.23
71.38
71.41
71.53
71.67
71.55
71.76
71.72
71.89
72.05
71.98
72.18
72.38
72.31
72.41
72.31
72.67
72.8
72.8
72.69
73.02
72.95
73.16
73.05
73.02
73.21
73.13
73.31
73.41
73.44
73.42
73.59
73.52
73.67
73.61
73.64
73.74
73.85
73.86
73.72
74.06
74.04
74.09
74
74.09
74.22
74.24
74.42
74.49
74.37
74.54
74.34
74.53
74.71
74.5
74.61
74.76
74.71
74.8
74.81
74.8
74.76
74.97
74.91
74.82
75.03
75
75.08
75.07
75.23
75.2
75.23
75.23
75.24
75.29
75.26
75.3
75.34
75.33
75.38
75.27
75.38
75.55
75.58
75.61
75.57
75.55
75.52
75.73
75.71
75.63
75.73
75.67
75.63
75.68
75.73
75.9
75.99
75.83
75.77
76.02
75.89
75.99
75.97
76.08
75.97
75.94
76.08
75.91
76.07
76.24
76.13
76.16
76.12
76.13
76.14
76.22
76.16
76.1
76.27
76.22
76.3
76.13
76.3
76.43
76.22
76.3
76.48
76.4
76.43
76.34
76.43
76.53
76.39
76.48
76.44
76.55
76.48
76.32
76.45
76.59
76.62
76.61
76.74
76.57
76.77
76.51
76.7
76.72
76.63
76.76
76.67
76.76
76.81
76.65
76.88
76.57
76.8
76.81
77.16
77.06
76.98
76.92
76.88
76.83
76.76
76.95
76.98
76.75
77.05
76.9
76.79
77.06
76.8
76.69
77.3
77.04
76.8
76.87
77.04
76.93
76.95
77.01
77.17
77.04
77.23
77.16
77.12
77.11
77.11
77.2
77.39
77.25
