301
200
800
3
128
2
.740005
.86
.850006
.940002
.910004
.690002
.810013
.790008
.780014
.670013
.700012
.700012
.720001
.690002
.690002
.680008
.670013
.680008
.680008
.660004
.650009
.640015
.660004
.640015
.62001
.600006
.590011
.62001
.600006
.570007
.580002
.560013
.550003
.550003
.560013
.530014
.580002
.570007
.560013
.540008
.580002
.580002
.590011
.61
.560013
.600006
.570007
.560013
.550003
.550003
.560013
.570007
.590011
.990005
3.8
9.78002
19.08
28.85
37.8
44.23
48.08
51.01
53.27
54.84
57.09
58.5
59.68
61.08
61.89
63.02
63.54
65.23
65.67
66.5
66.78
67.3
67.86
68.62
69.41
69.39
69.38
69.47
70.23
70.12
70.55
70.28
70.15
71.42
70.76
71.48
71.41
71.42
72.07
71.8
71.86
71.31
72.16
72.29
72.21
72.32
72.52
72.49
72.76
73.01
72.82
72.84
72.95
73.07
73.18
73.39
73.17
73.26
73.45
73.37
73.54
73.53
73.56
73.76
73.62
73.74
73.91
73.79
74.14
74.05
73.92
74.11
74.06
74.12
74.26
74.29
74.26
74.38
74.19
74.5
74.48
74.55
74.67
74.62
74.47
74.54
74.65
74.68
74.78
74.87
74.75
74.94
74.99
74.97
75.1
74.92
75.11
75.1
75.16
75.17
75.21
75.22
75.27
75.21
75.3
75.19
75.33
75.28
75.43
75.44
75.47
75.46
75.66
75.55
75.54
75.6
75.68
75.59
75.63
75.51
75.79
75.74
75.78
75.82
75.81
75.83
75.96
75.81
75.9
75.99
75.95
76.09
75.97
75.89
76.05
76.07
76.12
76.1
76.07
76.08
76.13
76.05
76.24
76.1
76.19
76.12
76.16
76.15
76.24
76.27
76.17
76.35
76.34
76.21
76.35
76.27
76.43
76.3
76.45
76.51
76.5
76.34
76.32
76.36
76.4
76.46
76.5
76.37
76.4
76.59
76.36
76.55
76.48
76.7
76.44
76.53
76.48
76.62
76.83
76.61
76.69
76.77
76.87
76.74
76.59
76.56
76.74
76.84
76.69
76.79
76.75
76.8
76.63
76.9
76.89
76.81
76.89
76.88
76.77
76.91
77.12
77.08
76.9
76.84
76.85
76.86
77.07
77
76.85
77.12
76.88
76.81
76.89
77.22
77.13
77.06
77.18
77.17
77.09
77.12
77.04
77.22
76.73
77.04
76.69
77.16
76.98
76.98
76.99
77.21
77.04
76.88
77.33
76.82
76.67
77.09
77.15
77.21
76.94
77.38
77.19
77.37
77.19
77.19
77.5
77.44
77.12
