301
200
800
3
128
2
1.19
1.02
1.14001
.960007
1.08
.86
.950012
1.04
1.08
.910004
.910004
.940002
.900009
.880005
.890015
.880005
.87001
.86
.840011
.820007
.820007
.780014
.790008
.770004
.750015
.76001
.710007
.700012
.740005
.680008
.670013
.670013
.660004
.640015
.650009
.640015
.670013
.660004
.660004
.690002
.660004
.690002
.670013
.690002
.690002
.700012
.690002
.680008
.680008
.680008
.670013
.670013
.670013
.650009
.62001
.61
.770004
1.62001
4.1
8.60001
13.01
17.64
21.72
26.01
30.11
33.32
36.7
39.69
42.55
45.58
47.67
50.95
52.72
55.07
56.1
57.66
58.73
60.64
61.4
62.84
63.73
64.21
64.76
65.09
66.36
66.65
66.54
67.84
67.82
68.18
68.03
68.72
68.79
69.09
68.93
68.83
69.43
69.56
69.58
69.81
69.97
70.2
70.43
70.38
70.33
70.91
70.8
70.89
70.77
71.27
71.09
71.19
71.33
71.27
71.46
71.44
71.67
71.7
71.83
71.94
72.14
71.93
72.13
72.23
72.18
72.6
72.4
72.51
72.69
72.52
72.71
72.76
72.76
72.94
73.05
73.04
73.2
73.13
73.34
73.18
73.2
73.34
73.48
73.64
73.61
73.61
73.7
73.65
73.74
73.72
73.82
73.86
73.88
74.02
74.01
74.14
74.18
74.22
74.16
74.23
74.35
74.35
74.4
74.41
74.47
74.48
74.59
74.61
74.68
74.61
74.82
74.73
74.64
74.72
74.89
74.8
74.93
74.96
74.93
74.97
75.12
75.13
75.05
75.18
75.18
75.26
75.29
75.22
75.29
75.37
75.47
75.5
75.46
75.44
75.42
75.39
75.61
75.56
75.51
75.69
75.63
75.44
75.6
75.54
75.68
75.75
75.76
75.73
75.79
75.83
75.77
75.91
75.99
75.88
75.89
75.97
75.92
75.89
75.98
76.01
76.25
76.1
76.07
76.06
76.03
76.1
76.15
76.14
76.28
76.16
76.34
76.29
76.33
76.11
76.28
76.41
76.29
76.44
76.25
76.36
76.43
76.27
76.42
76.44
76.48
76.49
76.53
76.6
76.62
76.38
76.71
76.54
76.62
76.74
76.56
76.71
76.48
76.54
76.8
76.72
76.68
76.8
76.69
76.95
76.61
76.62
76.93
77.08
76.99
76.62
76.99
76.79
76.94
76.78
76.91
76.91
76.92
76.9
76.82
76.76
76.9
76.9
77.08
77.04
76.99
77.1
76.64
76.97
77.04
76.97
77.27
77.32
76.98
77.36
77.04
77.12
76.92
77.33
77.19
77.32
77.23
