301
200
800
3
128
2
.900009
.810013
1.02
.800003
.86
.780014
.790008
.790008
.840011
.780014
.790008
.76001
.76001
.720001
.700012
.76001
.700012
.720001
.710007
.730011
.660004
.700012
.680008
.670013
.630005
.650009
.630005
.61
.62001
.61
.600006
.600006
.600006
.590011
.570007
.590011
.580002
.570007
.590011
.600006
.61
.600006
.630005
.62001
.560013
.62001
.62001
.600006
.590011
.61
.590011
.62001
.650009
1.11
4.17001
10.99
21.17
32.13
41.87
48.62
52.7
55.52
57.3
58.81
60.4
61.48
62.57
63.43
64.13
64.42
65.42
66.42
67.51
67.5
67.82
68.33
68.66
69.3
68.87
69.86
69.62
69.82
70.44
70.74
70.52
70.73
70.85
71.23
71.54
71.39
71.51
71.94
72.02
72.28
71.86
72.34
72.36
72.46
72.31
72.62
72.49
72.83
72.85
72.77
72.99
73.08
73.04
73.35
73.28
73.34
73.37
73.42
73.48
73.38
73.73
73.62
73.77
73.8
73.95
73.91
73.97
73.92
74.13
74.06
74.19
74.34
74.24
74.27
74.32
74.26
74.36
74.42
74.24
74.55
74.48
74.71
74.59
74.69
74.78
74.59
74.82
74.76
74.83
74.96
74.92
75
74.98
75.05
75.08
75.07
75.18
75.11
75.14
75.21
75.22
75.31
75.19
75.26
75.25
75.27
75.43
75.34
75.37
75.4
75.42
75.37
75.46
75.55
75.56
75.66
75.68
75.55
75.64
75.69
75.76
75.69
75.79
75.79
75.91
75.76
75.81
75.85
75.94
76
75.85
75.92
75.83
76
75.94
76.03
75.98
76.16
76.16
76.11
76
76.11
76.13
76.17
76
76.17
76.13
76.15
76.13
76.37
76.34
76.3
76.35
76.22
76.3
76.31
76.21
76.27
76.58
76.37
76.41
76.31
76.2
76.4
76.44
76.43
76.52
76.54
76.51
76.63
76.5
76.68
76.44
76.53
76.74
76.53
76.54
76.63
76.72
76.47
76.75
76.88
76.67
76.63
76.65
76.64
76.79
76.82
76.53
76.71
76.61
76.84
76.62
76.78
76.99
76.69
76.77
76.93
76.84
76.72
77.03
76.75
76.79
76.73
77.03
76.88
76.94
76.98
77.08
77.3
76.89
77.13
77.06
77.08
77.03
76.73
77.19
77.05
76.96
77.06
77.02
76.95
76.88
76.89
76.96
76.83
76.94
76.92
76.99
77.38
76.92
77.28
76.99
77.08
77.16
77.17
77.45
77.08
77.22
77.34
77.23
77.27
77.08
77.39
77.38
77.21
77.22
