301
200
800
3
128
2
1.09001
.990005
.86
.87001
.900009
.920013
.840011
.800003
.76001
.740005
.720001
.770004
.76001
.730011
.720001
.720001
.680008
.710007
.690002
.730011
.690002
.680008
.650009
.670013
.630005
.640015
.650009
.630005
.62001
.590011
.580002
.580002
.570007
.570007
.580002
.560013
.590011
.570007
.580002
.600006
.590011
.590011
.600006
.600006
.590011
.590011
.61
.600006
.590011
.61
.590011
.590011
.62001
1.07
3.95001
10.26
19.94
29.92
39.19
45.84
49.46
52.77
54.66
56.64
58.88
60.36
61.21
62.91
64.12
64.67
65.27
66.51
66.65
67.95
67.85
69.45
68.72
69.88
70.03
70.32
70.73
71.06
71.34
71.34
71.92
72.25
71.66
72.19
72.5
72.42
73.01
73.17
72.9
73.35
73.42
72.02
73.1
73.29
73.39
73.48
73.4
73.66
73.75
73.77
73.81
73.92
73.89
74.12
74.09
74.29
74.09
74.25
74.25
74.25
74.34
74.15
74.51
74.46
74.68
74.59
74.7
74.76
74.68
74.97
74.99
75.15
74.91
74.9
75.13
75.01
75.16
75.28
75.04
75.28
75.15
75.29
75.36
75.41
75.4
75.39
75.48
75.41
75.53
75.76
75.6
75.63
75.61
75.77
75.68
75.56
75.78
75.7
75.73
75.88
75.77
75.95
75.95
75.9
76.03
75.99
76.06
75.99
76.08
76.02
75.95
76.12
76.13
76.29
76.18
76.19
76.35
76.29
76.32
76.25
76.25
76.28
76.44
76.27
76.38
76.48
76.48
76.48
76.37
76.44
76.49
76.5
76.43
76.46
76.58
76.45
76.65
76.77
76.59
76.69
76.57
76.57
76.66
76.7
76.76
76.74
76.75
76.65
76.63
76.79
76.76
76.79
76.84
76.76
76.91
76.86
76.96
76.93
76.86
76.85
76.87
76.94
76.74
76.82
76.95
76.95
77.1
76.89
77
77.03
77
77.2
77.12
76.94
77.11
77.08
77.12
77.27
76.96
77.04
77.22
77.3
77.45
77.38
77.13
77.3
77.26
77.15
77.33
77.18
77.16
77.31
76.89
77.26
77.29
77.39
77.18
77.31
77.38
77.24
77.56
77.34
77.17
77.47
77.28
77.3
77.26
77.18
77.11
77.53
77.41
77.51
77.23
77.48
77.5
77.7
77.49
77.25
77.38
77.35
77.46
77.28
77.04
77.48
77.39
77.43
77.51
77.32
77.37
77.99
77.56
77.49
77.62
77.38
77.68
77.56
77.98
77.33
77.47
77.28
77.59
77.52
77.39
77.62
77.58
77.94
77.42
