301
200
800
3
128
2
1.09001
1.07
1.06001
.990005
1.02
1.11
1.03001
.980011
.960007
.970001
.960007
.87001
.940002
.86
.890015
.87001
.880005
.840011
.820007
.800003
.790008
.730011
.76001
.740005
.740005
.740005
.700012
.680008
.670013
.630005
.640015
.650009
.630005
.62001
.590011
.590011
.630005
.590011
.600006
.62001
.62001
.660004
.660004
.650009
.650009
.660004
.650009
.630005
.62001
.630005
.630005
.630005
.590011
.590011
.600006
.570007
.710007
1.55
4.00001
8.24001
12.68
17.31
21.42
25.52
29.82
32.97
36.65
39.51
42.84
46.11
48.65
51.45
53.61
55.36
57.59
58.75
60.42
61.38
63.09
63.99
65.28
66.06
66.34
66.55
67.45
68.32
68.96
68.82
68.98
69.37
70.36
69.99
70.16
70.35
71.35
71.13
70.68
70.93
71.06
71.38
71.47
71.59
71.56
71.61
71.87
71.93
72.17
72.18
72.16
72.38
72.33
72.52
72.64
72.75
72.71
72.75
72.74
72.98
73.07
73.27
73.01
73.22
73.32
73.27
73.53
73.47
73.55
73.69
73.75
73.78
73.69
73.98
73.98
74.09
74.13
74.18
74.21
74.16
74.37
74.16
74.28
74.39
74.53
74.63
74.59
74.72
74.79
74.66
74.68
74.66
74.95
74.86
74.91
75
74.96
75.09
74.88
75.08
75.08
75.07
75.07
75.23
75.13
75.19
75.27
75.31
75.43
75.36
75.39
75.44
75.47
75.66
75.47
75.6
75.66
75.71
75.68
75.75
75.88
75.76
75.81
75.9
75.82
75.96
75.88
75.98
76.06
75.91
76.07
76.13
76.18
76.14
76.08
75.99
76.07
76.23
76.09
76.17
76.37
76.19
76.41
76.29
76.31
76.42
76.42
76.53
76.53
76.51
76.52
76.62
76.63
76.43
76.63
76.63
76.53
76.59
76.59
76.71
76.66
76.74
76.73
76.74
76.64
76.88
76.83
76.7
76.79
76.88
76.85
76.79
76.94
76.83
77.01
76.84
77.1
77
77.14
77.02
76.99
76.89
76.78
77.04
77.09
76.9
77.28
77.21
77.01
76.98
77.13
77.13
77.37
77.27
77.34
77.19
77.13
77.34
77.07
77.26
77.23
77.39
77.23
77.36
77.3
77.49
77.22
77.31
77.28
77.62
77.43
77.57
77.54
77.47
77.55
77.27
77.59
77.73
77.43
77.52
77.43
77.3
77.5
77.42
77.72
77.47
77.55
77.37
77.6
77.67
77.67
77.45
77.63
77.49
77.74
77.45
77.26
77.52
77.86
77.79
77.82
77.51
77.35
