301
200
800
3
128
2
.800003
.780014
.800003
.850006
.750015
.800003
.720001
.880005
.800003
.740005
.720001
.730011
.740005
.720001
.720001
.690002
.660004
.720001
.700012
.670013
.690002
.62001
.650009
.630005
.62001
.61
.61
.600006
.600006
.580002
.560013
.570007
.550003
.540008
.550003
.550003
.560013
.550003
.560013
.550003
.560013
.560013
.540008
.570007
.560013
.560013
.560013
.550003
.570007
.560013
.570007
.560013
.590011
1.05
3.77
10.11
19.6
29.76
39.04
46.3
50.1
52.93
55.12
57.18
58.88
60.01
62.02
62.43
63.58
64.98
65.27
66.64
67.42
67.53
68.07
68.5
69.38
69.42
70.37
69.83
70.12
71.1
71
71.29
71.23
71.92
71.66
71.93
71.82
72.42
72.42
71.85
73
72.68
73.27
73.7
72.79
73.01
73.26
73.18
73.35
73.25
73.24
73.47
73.54
73.69
73.78
73.75
73.99
73.91
73.98
74.22
74.09
74.17
73.98
74.41
74.39
74.29
74.42
74.6
74.38
74.57
74.52
74.65
74.81
74.76
74.88
74.87
74.91
74.81
74.97
74.94
75.06
75.18
75.16
75.17
75.28
75.29
75.21
75.16
75.28
75.46
75.47
75.4
75.52
75.51
75.53
75.56
75.64
75.74
75.72
75.66
75.7
75.88
75.79
75.85
75.85
75.93
75.92
75.93
75.93
75.93
75.98
76.03
76.07
76.09
76.18
76.14
76.22
76.08
76.18
76.14
76.06
76.35
76.39
76.42
76.24
76.38
76.52
76.37
76.4
76.32
76.43
76.48
76.44
76.38
76.51
76.51
76.49
76.56
76.59
76.57
76.51
76.5
76.61
76.73
76.66
76.71
76.71
76.75
76.82
76.79
76.79
76.83
76.77
76.88
76.85
76.86
76.81
76.83
76.83
76.87
76.89
76.94
76.89
76.97
76.93
76.99
76.96
77.16
77.08
77.02
76.94
76.93
77.05
76.87
76.94
77.19
76.99
77.22
77.18
77.03
77.25
77.04
77.07
77.24
77.22
77.08
77.23
77.25
77.05
77.18
77.18
77.12
77.33
77.22
77.28
77.28
77.36
77.4
77.28
77.38
77.29
77.42
77.26
77.65
77.23
77.39
77.23
77.41
77.3
77.42
77.58
77.48
77.49
77.71
77.52
77.57
77.63
77.6
77.51
77.8
77.84
77.6
77.41
77.82
77.55
77.47
77.65
77.65
77.64
77.82
77.62
77.76
77.33
77.52
77.75
77.45
77.62
77.66
77.72
77.46
77.98
77.61
77.52
77.77
77.61
77.72
77.91
77.27
77.63
