301
200
800
3
128
2
1.03001
.730011
.890015
.720001
.830002
.76001
.740005
.86
.820007
.76001
.840011
.820007
.800003
.76001
.76001
.770004
.790008
.750015
.710007
.720001
.700012
.690002
.680008
.700012
.680008
.670013
.660004
.650009
.640015
.62001
.640015
.600006
.570007
.570007
.580002
.590011
.570007
.560013
.570007
.570007
.600006
.630005
.61
.61
.61
.62001
.62001
.580002
.600006
.61
.600006
.61
.570007
.570007
.590011
.550003
.730011
1.67001
4.33
9.08
13.67
18.16
22.12
26.14
30.15
33.04
36.24
38.76
41.66
44.76
46.85
49.66
51.56
53.4
55.6
57.04
58.25
59.46
60.95
61.92
63.02
63.76
64.4
65.14
65.58
66.07
66.42
67.01
67.14
67.51
68.26
67.86
68.45
68.88
69.48
70.03
68.73
69.21
69.44
69.46
69.61
69.8
69.91
69.93
70.08
70.4
70.52
70.44
70.71
70.76
70.67
70.98
71.08
70.99
71.07
71.28
71.46
71.51
71.5
71.65
71.69
71.76
71.79
71.92
72.03
72.15
72.31
72.31
72.46
72.48
72.51
72.72
72.67
72.85
72.88
72.72
73.03
72.96
73.09
73.02
73.04
73.26
73.33
73.26
73.4
73.47
73.61
73.6
73.58
73.64
73.75
73.79
73.78
73.82
73.91
74.02
73.97
74.19
74.21
74.18
74.09
74.29
74.3
74.32
74.41
74.56
74.56
74.53
74.64
74.58
74.71
74.64
74.64
74.8
74.68
74.82
74.81
74.88
75.07
74.98
75.03
75.06
75.12
75.09
75.15
75.19
75.24
75.19
75.26
75.31
75.39
75.29
75.27
75.39
75.43
75.53
75.57
75.62
75.61
75.52
75.7
75.64
75.83
75.85
75.79
75.92
75.93
75.84
75.87
75.93
75.84
75.83
75.87
76.02
76.03
76.04
76.14
76.14
76.03
76.2
76.24
76.36
76.15
76.23
76.28
76.1
76.17
76.23
76.42
76.29
76.34
76.12
76.35
76.41
76.27
76.52
76.53
76.32
76.51
76.49
76.28
76.57
76.59
76.45
76.56
76.71
76.72
76.45
76.76
76.81
76.86
76.73
76.8
76.83
76.8
76.77
76.77
76.82
76.7
76.9
76.73
77.12
77.08
77
76.78
76.98
76.93
77.22
77.25
76.97
77.12
77.27
77.3
77.09
77.07
77.2
77.27
77.21
77.39
77.2
77.11
77.27
77.44
77.24
77.45
77.11
77.26
77.07
77.21
77.2
77.5
77.05
77.73
77.39
77.2
77.16
77.27
77.45
77.42
77.24
77.14
