301
200
800
3
128
2
.800003
1.03001
.850006
.850006
.900009
.740005
.800003
.790008
.770004
.730011
.710007
.700012
.750015
.730011
.710007
.730011
.750015
.710007
.680008
.660004
.700012
.650009
.630005
.640015
.630005
.62001
.61
.62001
.590011
.580002
.560013
.550003
.540008
.530014
.550003
.560013
.560013
.540008
.570007
.560013
.570007
.540008
.570007
.560013
.570007
.590011
.590011
.550003
.550003
.560013
.590011
.580002
.580002
1.04
3.82
10
19.44
29.7
38.54
45.62
49.21
51.82
53.86
56.09
58.07
59.3
60.83
61.09
62.28
63.95
64.35
65.57
65.71
66.35
66.94
67.76
68.11
68.2
69.19
69.5
69.97
70.31
70.32
70.51
70.6
70.81
71.5
71.16
71.34
71.57
71.89
71.33
71.9
72.36
72.65
73.42
72.25
72.51
72.76
72.6
72.76
72.97
72.77
72.91
73.01
73.21
73.19
73.37
73.51
73.42
73.54
73.65
73.64
73.73
73.59
73.73
73.84
73.89
74.07
74.15
74.03
74.13
74.28
74.25
74.44
74.45
74.23
74.65
74.55
74.5
74.64
74.79
74.71
74.91
74.95
74.87
74.94
74.94
74.98
74.85
75.19
75.11
75.19
75.06
75.19
75.22
75.31
75.26
75.52
75.4
75.4
75.38
75.51
75.61
75.57
75.68
75.65
75.66
75.67
75.67
75.8
75.82
75.78
75.85
75.85
75.95
75.91
75.98
75.98
75.98
76.01
75.95
75.99
76.21
76.17
76.15
76.13
76.12
76.25
76.29
76.19
76.22
76.29
76.29
76.37
76.24
76.36
76.31
76.41
76.44
76.56
76.47
76.39
76.41
76.5
76.55
76.62
76.54
76.68
76.62
76.58
76.73
76.64
76.59
76.81
76.66
76.79
76.68
76.68
76.8
76.7
76.78
76.79
76.8
76.73
76.86
76.82
76.81
76.8
76.87
76.91
76.93
76.78
77.08
77.07
76.93
76.92
76.92
76.94
77.19
76.88
77.01
77.09
77
77.03
77.18
77.22
76.99
76.95
77.33
77.01
77.07
77.28
77.03
77.17
77.12
77.25
77.05
77.43
77.29
77.26
77.31
77.17
77.38
77.35
77.32
77.34
77.17
77.09
77.49
77.32
77.31
77.32
77.3
77.32
77.62
77.39
77.68
77.52
77.6
77.34
77.55
77.76
77.51
77.39
77.73
77.5
77.57
77.75
77.46
77.67
77.68
77.81
77.63
77.62
77.68
77.32
77.46
77.49
77.29
77.63
77.66
77.8
77.63
77.56
77.49
77.53
77.98
77.78
77.55
77.52
