301
200
800
3
128
2
1.47
-.260009
-.740005
.950012
-.0800018
.430008
1.24
.660004
.650009
.62001
.850006
.940002
.930008
1.17001
.990005
.990005
1.07
.630005
.920013
.740005
.560013
.800003
.560013
.660004
.570007
.750015
.62001
.680008
.560013
.550003
.76001
.680008
.51001
.590011
.560013
.690002
.540008
.550003
.520004
.590011
.520004
.580002
.600006
.540008
.680008
.590011
.600006
.490005
.62001
.580002
.540008
.500015
.480011
.630005
.580002
.500015
.700012
1.46
3.87001
8.27001
12.59
16.72
21.18
25.51
29.94
33.39
36.91
40.1
43.47
47.21
49.6
52.3
54.83
56.76
58.79
60.21
61.14
63.29
63.92
64.86
65.51
66.72
67.59
68.09
68.41
69.06
69.18
70.09
69.68
70.43
70.38
70.7
70.8
71.17
72.15
72.09
71.6
71.66
72.04
71.99
72.11
72.43
72.38
72.42
72.63
72.64
72.76
73.19
73.06
73.04
73.11
73.34
73.32
73.3
73.35
73.44
73.64
73.57
73.74
73.78
73.8
73.88
73.84
73.94
74.19
74.15
74.33
74.42
74.32
74.41
74.58
74.59
74.62
74.68
74.94
74.74
74.79
74.9
74.98
74.81
74.88
75.05
75.08
75.14
75.15
75.2
75.4
75.33
75.44
75.35
75.5
75.43
75.48
75.49
75.54
75.61
75.62
75.64
75.64
75.68
75.69
75.7
75.78
75.84
75.9
75.83
75.97
76.02
75.89
76.09
76.04
76.11
75.92
76.08
76.18
76.25
76.27
76.11
76.35
76.28
76.41
76.35
76.35
76.33
76.37
76.49
76.47
76.47
76.52
76.56
76.58
76.51
76.5
76.6
76.63
76.73
76.71
76.64
76.64
76.76
76.89
76.89
76.9
76.68
76.9
76.98
76.97
76.92
76.78
77.03
76.92
77.05
77.06
77.13
77.09
77.08
77.07
77.07
77.04
77.13
77.09
77.16
77.17
77.21
77.19
77.13
77.33
77.33
77.45
77.28
77.3
77.22
77.31
77.47
77.28
77.44
77.46
77.24
77.46
77.5
77.39
77.27
77.49
77.46
77.52
77.44
77.42
77.39
77.69
77.5
77.69
77.66
77.6
77.62
77.49
77.59
77.74
77.72
77.56
77.78
77.54
77.68
77.76
77.6
77.68
77.5
77.82
77.63
77.66
77.9
77.74
77.87
77.94
77.84
77.77
77.86
77.79
77.76
77.69
77.88
77.98
78.02
77.9
78.13
78.05
77.76
77.96
77.74
77.81
77.91
78.18
78.16
78.05
77.78
77.85
77.97
77.83
78.22
77.96
77.87
78.37
