301
200
800
3
128
2
.880005
.940002
.76001
.780014
.790008
.960007
.86
.840011
.840011
.820007
.730011
.730011
.76001
.730011
.770004
.690002
.780014
.76001
.710007
.680008
.700012
.660004
.630005
.640015
.660004
.640015
.62001
.62001
.61
.590011
.570007
.560013
.560013
.550003
.530014
.560013
.550003
.560013
.520004
.570007
.560013
.560013
.570007
.590011
.560013
.550003
.560013
.550003
.550003
.550003
.560013
.580002
.61
1.03001
3.79001
10.13
19.67
29.92
39.4
46.3
50.39
53.42
55.78
58.4
60.46
61.06
62.87
63.59
64.49
65.98
66.74
67.55
68.06
68.95
69.95
69.67
70.05
70.7
71.64
71.12
71.58
72.29
72.15
72.23
72.59
72.75
72.8
73.17
72.94
73
72.92
73.71
73.89
73.29
74.22
74.94
73.72
74.06
73.94
74.05
74.23
74.18
74.15
74.33
74.54
74.5
74.63
74.74
74.72
74.68
74.88
74.75
74.83
74.82
74.78
75.07
74.94
75.16
75.3
75.12
75.06
75.25
75.29
75.36
75.43
75.33
75.49
75.54
75.62
75.45
75.72
75.75
75.75
75.97
75.74
75.86
75.92
75.94
75.89
75.88
75.96
76.01
76.02
76.07
76.05
76.2
76.15
76.18
76.37
76.21
76.35
76.28
76.35
76.42
76.36
76.56
76.39
76.41
76.35
76.55
76.43
76.45
76.6
76.57
76.64
76.59
76.6
76.66
76.71
76.52
76.73
76.81
76.69
76.8
76.75
76.89
76.79
76.9
76.94
76.92
76.81
76.94
77.01
76.92
76.9
76.96
76.95
76.98
76.98
76.97
77.04
77
76.97
77.01
77.07
77.13
77.2
77.22
77.29
77.23
77.27
77.14
77.33
77.21
77.35
77.33
77.28
77.26
77.31
77.23
77.26
77.41
77.39
77.42
77.47
77.45
77.36
77.34
77.4
77.53
77.54
77.51
77.38
77.54
77.58
77.5
77.67
77.48
77.49
77.62
77.44
77.44
77.46
77.69
77.6
77.65
77.6
77.54
77.59
77.64
77.51
77.51
77.8
77.39
77.77
77.98
77.75
77.71
77.77
77.84
77.78
77.81
77.75
77.95
77.86
77.82
77.81
77.81
77.69
78.05
77.86
77.76
78
77.86
77.85
78.02
77.98
77.97
78.03
77.99
77.71
77.68
78.06
77.9
77.84
77.98
78.03
77.91
78.15
77.98
77.86
78.28
78.12
78.08
78.1
77.69
77.89
77.91
77.72
77.98
78.08
78.5
78.33
78.01
77.81
77.82
78.09
78.3
78.2
77.84
78.06
