301
200
800
3
128
2
1.12001
.990005
1.1
.910004
.980011
.970001
.960007
.970001
.850006
.910004
.850006
.790008
.850006
.850006
.810013
.850006
.790008
.820007
.800003
.770004
.750015
.720001
.720001
.710007
.710007
.690002
.710007
.730011
.680008
.640015
.650009
.61
.62001
.62001
.600006
.630005
.630005
.590011
.630005
.62001
.640015
.640015
.670013
.680008
.650009
.650009
.660004
.660004
.650009
.650009
.650009
.640015
.650009
.62001
.590011
.650009
1.06001
2.83
7.50001
15.29
21.62
27.52
32.1
36
39.35
41.76
44
45.69
47.97
50.09
51.57
52.87
54.61
56.54
57.72
58.71
59.86
61.15
62.48
62.83
63.18
64.36
64.91
65.46
65.93
66.42
66.58
67.19
67.36
67.62
68.31
68.27
69.1
68.4
69.03
69.4
69.03
69.2
69.56
69.44
69.88
69.81
69.84
69.94
70.34
70.52
70.36
70.68
70.82
70.82
70.91
70.85
71.07
71.05
71.16
71.38
71.43
71.52
71.69
71.78
71.61
71.86
71.9
71.99
72.12
72.11
72.35
72.44
72.39
72.43
72.52
72.77
72.77
72.8
72.91
73.07
73.1
73.03
73.14
73.13
73.11
73.45
73.31
73.28
73.42
73.52
73.67
73.62
73.62
73.68
73.76
73.91
73.86
73.95
74.07
74.1
74.01
74.13
74.22
74.22
74.25
74.3
74.31
74.43
74.53
74.55
74.57
74.58
74.64
74.69
74.74
74.77
74.77
74.85
74.95
74.99
74.87
74.83
75.1
74.99
74.96
75.11
75.24
75.23
75.29
75.23
75.2
75.3
75.28
75.39
75.35
75.42
75.34
75.46
75.44
75.57
75.58
75.57
75.56
75.69
75.72
75.67
75.8
75.77
75.74
75.69
75.8
75.83
75.79
76.07
75.96
75.89
76.04
75.99
76.06
76.03
76.08
76.16
76.03
76.24
76.3
76.23
76.16
76.22
76.18
76.15
76.01
76.23
76.38
76.32
76.26
76.24
76.28
76.51
76.29
76.6
76.43
76.69
76.46
76.6
76.17
76.52
76.62
76.37
76.74
76.59
76.7
76.6
76.78
76.8
76.89
76.88
76.79
76.91
76.74
76.77
76.71
76.73
76.67
76.78
76.98
76.89
77.12
77.05
76.64
77.08
77.07
77.05
77.26
76.9
77.04
77
77.13
77.07
77.18
77
76.99
77.09
77.13
77.1
76.95
77.48
77.15
77.23
77.05
77.26
76.99
77.31
76.97
77.04
77.21
77.21
77.65
77.19
77.01
77.33
77.14
77.46
77.32
77.21
77.35
