301
200
800
3
128
2
.990005
.940002
.890015
.710007
.600006
.800003
.780014
.810013
.800003
.76001
.710007
.750015
.750015
.690002
.770004
.740005
.710007
.730011
.680008
.630005
.680008
.630005
.650009
.640015
.62001
.62001
.61
.61
.62001
.580002
.580002
.550003
.550003
.550003
.530014
.550003
.550003
.560013
.520004
.570007
.560013
.560013
.600006
.570007
.570007
.560013
.580002
.590011
.560013
.580002
.550003
.570007
.600006
1.08
4.06001
10.86
21.54
32.61
42.35
49.54
53.28
55.96
58.09
59.52
60.97
61.84
63.14
63.82
64.69
65.84
66.09
66.19
67.23
68.3
68.61
68.42
69.51
69.42
70.32
70.37
70.07
70.78
71.07
71.06
71.82
72.28
71.58
71.9
71.84
72.61
71.8
72.45
72.46
72.88
73.07
73.97
72.78
73.16
73.21
73.37
73.43
73.46
73.43
73.41
73.8
73.96
73.6
73.98
74.06
74.01
74.07
74.21
74.3
74.14
74.07
74.15
74.34
74.45
74.51
74.61
74.59
74.67
74.83
74.71
74.69
74.77
74.92
75
74.91
74.93
74.94
74.97
75.23
75.21
75.19
75.32
75.27
75.27
75.42
75.36
75.34
75.44
75.56
75.5
75.48
75.61
75.69
75.61
75.74
75.85
75.76
75.84
75.85
75.87
75.89
76
75.88
76.02
75.89
75.98
76.02
76.07
76.02
76.02
76.16
76.12
76.13
76.24
76.17
76.16
76.18
76.23
76.22
76.39
76.39
76.4
76.37
76.44
76.42
76.5
76.33
76.5
76.51
76.54
76.48
76.57
76.61
76.58
76.6
76.69
76.63
76.68
76.58
76.68
76.52
76.68
76.76
76.74
76.78
76.82
76.89
76.76
76.82
76.78
76.9
76.85
76.85
76.84
76.87
76.84
76.85
76.86
76.94
76.95
77.17
77.11
76.85
77.04
77
77.14
77.16
77.29
77.07
77.04
77.19
76.98
77.11
77.14
77.26
77.29
77.19
77.13
77.05
77.23
77.16
77.21
77.51
77.31
77.04
77.45
77.08
77.18
77.49
77.1
77.49
77.29
77.42
77.28
77.26
77.65
77.45
77.54
77.2
77.36
77.51
77.56
77.34
77.51
77.41
77.72
77.61
77.63
77.49
77.66
77.48
77.66
77.58
77.54
77.72
77.9
77.37
77.78
77.56
77.67
77.59
77.69
77.61
77.79
77.78
77.55
77.68
78.04
77.85
77.72
77.7
77.56
77.78
77.51
77.6
77.68
77.84
78.05
77.9
77.71
77.79
77.52
77.75
77.88
77.84
77.28
77.85
