301
200
800
3
128
2
.86
1.06001
.500015
.790008
.920013
.830002
.970001
.900009
.880005
.800003
.800003
.730011
.770004
.770004
.720001
.780014
.76001
.76001
.740005
.690002
.670013
.690002
.660004
.680008
.670013
.650009
.660004
.630005
.640015
.61
.630005
.580002
.630005
.600006
.590011
.580002
.590011
.570007
.570007
.62001
.62001
.62001
.600006
.61
.62001
.600006
.62001
.62001
.61
.590011
.61
.630005
.700012
1.18
4.28001
11.57
22.65
34.27
44.52
52.11
55.99
58.45
60.87
62.35
63.98
64.88
66.26
67.38
68.04
68.3
68.82
70.2
70.9
71.11
70.55
72
72.36
72.81
72.71
72.87
73.4
73.81
73.94
73.73
74.03
74.28
73.91
74.83
75.08
75.05
74.71
75.31
75.66
75.29
75.14
74.47
75.74
75.57
75.35
75.7
75.54
75.78
75.68
75.83
75.7
75.82
75.92
76.05
76.15
75.97
76.09
76.24
76.22
76.09
76.43
76.23
76.25
76.34
76.39
76.5
76.47
76.38
76.64
76.57
76.5
76.75
76.58
76.62
76.8
76.57
76.66
76.71
76.68
76.92
76.76
76.99
76.79
76.79
76.92
76.95
76.89
77.03
76.95
77.06
76.91
77.13
77.1
77.08
77.16
76.96
77.11
77.07
77.26
77.2
77.18
77.26
77.15
77.32
77.29
77.3
77.33
77.33
77.34
77.38
77.33
77.33
77.37
77.38
77.46
77.46
77.53
77.47
77.33
77.49
77.6
77.52
77.49
77.48
77.59
77.58
77.69
77.55
77.59
77.63
77.51
77.65
77.59
77.65
77.58
77.49
77.7
77.77
77.75
77.64
77.73
77.64
77.75
77.7
77.63
77.64
77.71
77.71
77.65
77.69
77.58
77.94
77.84
77.74
77.71
77.83
77.78
77.66
77.86
77.74
77.8
77.79
77.71
77.75
77.89
77.64
77.74
77.86
77.86
77.75
77.71
77.76
77.83
78
77.98
77.91
77.74
77.9
77.91
77.74
77.85
77.87
78.19
77.99
77.94
77.82
78
77.81
77.95
78.13
77.94
77.96
77.83
78
77.91
77.84
78.04
78.12
78.01
77.94
78.01
78.02
77.9
77.88
77.94
77.96
78.09
77.91
78.03
78.31
77.89
77.95
78.04
78.26
78.29
78.17
78.11
78.37
78.04
77.99
77.98
78.08
77.91
78.01
77.94
77.99
77.93
77.99
77.87
78.2
77.84
77.88
78.02
77.98
78.02
77.95
78.11
78.25
78.15
78.23
78.19
78.28
78.12
78.28
78.42
78.22
78.17
