301
200
800
3
128
2
1.1
1.22
.970001
.880005
.86
.920013
.86
.920013
.890015
.840011
.880005
.910004
.830002
.880005
.830002
.86
.810013
.820007
.820007
.820007
.780014
.740005
.730011
.720001
.730011
.700012
.710007
.700012
.650009
.640015
.62001
.630005
.630005
.600006
.600006
.630005
.61
.61
.600006
.62001
.650009
.630005
.660004
.660004
.630005
.650009
.630005
.630005
.650009
.640015
.640015
.630005
.640015
.590011
.580002
.590011
.740005
1.64001
4.16
8.96001
13.56
18.42
22.52
26.75
31.01
34.36
37.6
40.47
43.46
46.76
49.18
51.65
53.36
55.84
58.01
59.13
60.48
61.53
62.77
63.59
64.69
65.9
66.09
66.48
67.17
67.94
68.01
68.8
68.69
69.33
69.67
69.48
69.92
70.19
70.75
71.67
70.53
70.61
70.99
71.1
71.11
71.16
71.28
71.45
71.43
71.74
71.8
71.9
71.93
72.09
72.11
72.22
72.46
72.3
72.2
72.62
72.58
72.6
72.94
72.87
72.89
73.06
73.16
73.22
73.38
73.25
73.45
73.57
73.54
73.66
73.74
73.83
73.68
74
73.99
73.97
74.15
74.28
74.05
74.12
74.28
74.38
74.49
74.44
74.4
74.59
74.49
74.65
74.64
74.78
74.76
74.72
74.81
74.96
75.06
74.96
75.1
75.04
74.99
75.15
75.01
75.08
75.15
75.2
75.3
75.24
75.43
75.34
75.42
75.4
75.45
75.66
75.54
75.66
75.61
75.72
75.61
75.72
75.91
75.81
75.75
75.88
75.91
75.87
75.95
75.93
76
75.99
76.07
76.07
76.06
76.15
76.13
76.15
76.13
76.21
76.28
76.36
76.19
76.36
76.37
76.4
76.36
76.46
76.58
76.4
76.56
76.49
76.58
76.53
76.62
76.57
76.59
76.82
76.68
76.71
76.64
76.83
76.9
76.83
76.68
76.92
76.86
76.87
76.77
76.85
76.84
76.89
76.98
76.84
76.88
76.93
76.99
77.07
76.92
76.96
77.15
77.11
77.03
77.14
76.84
76.97
77.15
77.13
77.19
77.17
77.17
77.1
77.29
77.35
77.13
77.36
77.2
77.13
77.33
77.29
77.37
77.27
77.44
77.55
77.45
77.38
77.55
77.58
77.4
77.51
77.53
77.32
77.57
77.81
77.67
77.72
77.49
77.53
77.46
77.77
77.46
77.73
77.6
77.24
77.53
77.69
77.76
77.78
77.6
77.58
77.47
77.41
77.7
77.68
77.69
77.96
77.92
77.8
77.55
77.52
77.77
78.11
77.82
77.42
77.81
