301
200
800
3
128
2
1.04
.850006
.890015
.880005
.740005
.830002
.86
.720001
.690002
.740005
.710007
.750015
.700012
.770004
.700012
.720001
.700012
.720001
.680008
.690002
.660004
.660004
.670013
.640015
.640015
.650009
.600006
.62001
.590011
.560013
.570007
.590011
.560013
.560013
.550003
.550003
.550003
.550003
.580002
.560013
.580002
.570007
.540008
.570007
.580002
.560013
.560013
.580002
.570007
.580002
.570007
.570007
.590011
1.06001
3.92001
10.47
20.39
30.96
40.5
47.73
51.74
55.2
56.78
58.9
60.45
61.52
63.06
63.75
65.5
66.06
66.5
67.5
68.31
68.62
69.3
69.46
70.78
70.07
71.25
70.69
71
72.03
71.91
72.15
72.31
72.48
72.54
72.69
72.94
73.11
73.63
73.45
73.85
73.89
74.38
74.64
73.54
73.53
74.08
73.97
74.1
74.18
74.1
74.23
74.18
74.46
74.62
74.55
74.67
74.69
74.57
74.93
74.73
74.73
74.71
74.7
74.79
74.94
75.08
75.06
75.05
75.07
75.38
75.25
75.36
75.24
75.54
75.45
75.43
75.48
75.45
75.53
75.65
75.68
75.74
75.58
75.8
75.9
75.88
75.74
75.8
76.06
76.11
76.03
75.97
76.09
76.08
76.12
76.18
76.21
76.32
76.19
76.25
76.3
76.37
76.42
76.29
76.33
76.31
76.39
76.28
76.38
76.37
76.5
76.59
76.63
76.62
76.52
76.63
76.6
76.7
76.67
76.57
76.73
76.8
76.73
76.71
76.73
76.88
76.82
76.72
76.84
76.82
76.88
76.93
76.98
77.02
77.01
76.89
76.97
76.94
76.97
77.1
77.1
77
76.99
77.11
77.08
77.22
77.14
77.34
77.05
77.22
77.18
77.14
77.26
77.21
77.18
77.32
77.27
77.32
77.27
77.23
77.37
77.36
77.39
77.4
77.35
77.38
77.47
77.42
77.51
77.38
77.43
77.44
77.44
77.55
77.45
77.63
77.58
77.5
77.46
77.48
77.47
77.36
77.48
77.58
77.72
77.52
77.52
77.38
77.5
77.66
77.46
77.79
77.61
77.66
77.57
77.71
77.8
77.62
77.81
77.84
77.81
77.78
77.74
77.89
77.79
77.74
77.94
77.8
77.89
77.88
77.78
77.9
78.11
77.73
78.11
77.93
77.98
77.66
77.89
77.88
77.9
77.78
78.14
77.94
77.96
78.05
78.08
77.99
78.01
78.08
78.01
77.89
77.7
77.63
78.2
78.02
77.87
78
78.04
78.14
78.01
78.06
77.93
78.03
78.22
78.08
77.68
77.74
