301
200
800
3
128
2
1.22
.990005
1.26001
1.06001
1.13
1.09001
.970001
1.07
.910004
.980011
.970001
1.02
.980011
.950012
.940002
.930008
.910004
.910004
.840011
.830002
.840011
.810013
.820007
.76001
.76001
.740005
.730011
.720001
.700012
.680008
.680008
.650009
.660004
.62001
.670013
.650009
.650009
.670013
.650009
.650009
.650009
.670013
.670013
.710007
.710007
.670013
.670013
.690002
.670013
.670013
.640015
.670013
.640015
.62001
.600006
.62001
.960007
2.57
7.05
14.33
21.2
27.42
32.22
36.8
40.69
43.14
46.02
47.92
49.75
52.3
54.14
55.71
57.07
59.07
60.43
61.13
62.98
63.48
64.78
65.05
65.76
66.8
67.17
67.78
68.33
68.77
68.86
68.95
69.08
69.85
69.97
70.22
70.63
70.3
70.84
71.13
70.8
70.91
71.21
71.21
71.26
71.52
71.5
71.72
71.77
71.87
72.04
72.19
72.3
72.38
72.35
72.6
72.59
72.63
72.57
72.6
72.75
72.96
73.05
73.13
73.15
73.17
73.3
73.24
73.54
73.59
73.71
73.79
73.59
73.77
73.75
73.98
73.95
74.09
74.3
74.15
74.25
74.23
74.28
74.29
74.36
74.6
74.47
74.48
74.62
74.65
74.74
74.88
74.9
74.94
74.89
75
75.02
75.05
75.19
75.28
75.28
75.24
75.26
75.33
75.33
75.47
75.42
75.49
75.5
75.55
75.6
75.63
75.67
75.77
75.8
75.82
75.81
75.86
75.95
76.05
75.94
76.01
76.14
76.11
76
76
76.1
76.04
76.15
76.19
76.27
76.2
76.29
76.28
76.29
76.34
76.38
76.24
76.41
76.45
76.51
76.48
76.51
76.63
76.63
76.64
76.7
76.68
76.69
76.75
76.85
76.76
76.74
76.89
76.91
76.82
76.66
76.93
76.98
77.03
76.96
76.96
76.98
77.16
77.15
77.01
77.15
77.22
77.19
77.15
77.01
77.26
77.25
77.29
77.2
77.17
77.17
77.07
77.34
77.34
77.37
77.24
77.13
77.39
77.28
77.3
77.52
77.24
77.52
77.55
77.58
77.29
77.43
77.75
77.66
77.77
77.58
77.89
77.49
77.79
77.56
77.63
77.63
77.86
77.74
77.73
77.57
77.83
77.81
77.76
77.65
77.81
77.76
77.97
77.69
78.06
77.9
78.03
77.92
78.08
77.97
78
78.19
78.06
77.88
78.15
78.08
78.03
78.06
77.94
78.03
77.73
78.34
78.13
78.3
78.23
77.86
78.09
78.28
78.02
78.44
78.43
78.11
78.04
78.36
