301
200
800
3
128
2
.900009
.810013
.810013
.930008
.890015
.890015
.910004
.850006
.810013
.730011
.810013
.76001
.730011
.720001
.740005
.730011
.710007
.720001
.700012
.710007
.700012
.680008
.670013
.660004
.660004
.630005
.640015
.640015
.640015
.590011
.580002
.600006
.560013
.560013
.550003
.560013
.570007
.570007
.550003
.570007
.580002
.580002
.570007
.590011
.560013
.590011
.570007
.580002
.560013
.590011
.590011
.580002
.630005
1.12001
4.17001
11.38
21.88
33.23
43.58
50.53
54.08
57.44
58.32
60.84
62.06
62.76
63.93
64.64
65.45
66.65
66.71
67.02
67.72
68.67
68.51
69.37
69.52
69.57
71.34
70.21
71.03
71.19
71.55
71.18
71.72
72.05
72.15
72.16
72.53
72.4
72.86
72.75
72.82
72.45
73.61
73.18
73.16
73.18
73.49
73.5
73.52
73.76
73.64
73.64
73.83
74.02
73.91
74.23
74.34
73.91
74.2
74.34
74.27
74.23
74.26
74.36
74.48
74.48
74.69
74.76
74.76
74.86
74.82
74.92
74.87
74.96
74.99
75.01
75.1
75.02
75.2
75.21
75.29
75.34
75.3
75.42
75.5
75.43
75.36
75.39
75.44
75.68
75.66
75.67
75.72
75.69
75.76
75.75
75.9
75.91
75.99
75.84
76.02
76.05
75.97
76.11
76.09
75.98
76.05
76.23
76.13
76.16
76.16
76.18
76.21
76.28
76.36
76.38
76.34
76.32
76.4
76.42
76.37
76.41
76.58
76.6
76.49
76.5
76.64
76.49
76.57
76.64
76.6
76.58
76.6
76.7
76.68
76.64
76.73
76.7
76.76
76.84
76.71
76.77
76.7
76.97
76.68
76.82
76.9
76.85
76.85
76.94
76.94
76.85
76.98
77.02
77.03
76.9
76.93
76.95
76.95
77.04
77.06
77.08
77.17
77.16
77.11
77.08
77.21
77.09
77.27
77.29
77.12
77.19
77.25
77.27
77.06
77.32
77.07
77.33
77.36
77.1
77.14
77.26
77.21
77.27
77.36
77.27
77.23
77.47
77.11
77.35
77.42
77.21
77.37
77.42
77.26
77.31
77.63
77.54
77.6
77.54
77.37
77.33
77.37
77.6
77.51
77.55
77.39
77.67
77.46
77.53
77.54
77.6
77.54
77.59
77.8
77.66
77.68
77.67
77.48
77.63
78.11
77.67
77.52
77.9
77.88
77.51
77.66
77.69
77.66
77.8
77.69
77.81
77.57
77.75
77.58
77.62
77.92
77.76
77.74
77.85
78.12
77.78
77.59
77.81
77.6
78.05
77.97
77.76
77.63
