301
200
800
3
128
2
1.07
1.20001
1.22
1.04
1.00001
1.02
.950012
.920013
.840011
.910004
.890015
.790008
.820007
.830002
.810013
.820007
.820007
.800003
.810013
.780014
.780014
.750015
.750015
.710007
.710007
.680008
.730011
.680008
.650009
.650009
.630005
.630005
.62001
.600006
.61
.61
.600006
.61
.61
.62001
.640015
.660004
.650009
.670013
.640015
.650009
.650009
.650009
.670013
.670013
.630005
.630005
.640015
.600006
.590011
.560013
.630005
1.16
2.72
5.69
9.10001
12.67
16.31
20.21
24.49
28
31.56
34.79
38.36
42.13
44.93
47.89
50.36
52.23
54.8
56.18
57.74
58.91
60.54
61.44
62.62
63.17
63.98
64.1
64.93
65.66
65.58
66.1
66.56
66.61
67.37
67.71
68.45
67.89
69.49
69.22
68.36
68.6
68.92
68.85
69.18
69.34
69.3
69.41
69.58
69.97
69.86
70.08
70.19
70.37
70.44
70.67
70.69
70.69
70.65
70.86
70.76
71.12
71.14
71.3
71.17
71.45
71.42
71.55
71.73
71.72
71.88
72.01
71.96
72.02
72.02
72.35
72.41
72.42
72.57
72.42
72.6
72.66
72.76
72.79
72.84
72.94
73.05
73.01
73.04
73.2
73.19
73.27
73.37
73.39
73.4
73.5
73.48
73.64
73.66
73.69
73.71
73.87
73.72
73.86
73.85
73.95
73.99
73.94
74.12
74.16
74.19
74.1
74.12
74.26
74.33
74.43
74.35
74.52
74.56
74.62
74.51
74.6
74.71
74.74
74.69
74.75
74.86
74.84
74.88
74.98
74.95
74.88
75.06
75
75.04
75.24
75.17
75.26
75.03
75.31
75.29
75.33
75.38
75.41
75.56
75.46
75.47
75.51
75.65
75.58
75.58
75.55
75.6
75.7
75.61
75.66
75.65
75.9
75.82
75.93
75.81
75.86
75.99
76.16
75.99
75.96
76.03
76.07
76.08
75.93
75.96
76.21
76.01
76.16
76.16
76.21
76.3
76.19
76.2
76.18
76.32
76.28
76.27
76.43
76.25
76.44
76.45
76.34
76.46
76.54
76.46
76.64
76.61
76.57
76.66
76.74
76.68
76.66
76.78
76.7
76.6
76.56
76.55
76.79
76.87
76.91
77.04
76.78
76.79
76.81
76.78
77
76.87
77.03
76.83
76.98
76.99
76.77
77.01
77.11
77.11
76.86
77.16
76.98
77.34
77.06
77.08
77.19
77.18
77.01
77.18
76.94
77.08
77.08
76.89
77.28
77.33
77.2
77.11
77.08
77.4
77.43
77.47
77.15
77.3
