301
200
800
3
128
2
1.01001
.880005
.740005
.86
.770004
.930008
.830002
.770004
.790008
.730011
.750015
.740005
.740005
.720001
.740005
.780014
.730011
.710007
.740005
.710007
.690002
.670013
.660004
.670013
.640015
.640015
.61
.62001
.61
.600006
.580002
.560013
.570007
.570007
.560013
.560013
.550003
.590011
.560013
.570007
.560013
.580002
.580002
.580002
.580002
.580002
.560013
.570007
.580002
.570007
.580002
.61
.600006
.930008
3.3
8.87001
17.65
27.29
36.2
42.89
47.06
50.89
52.81
55.15
57.45
59
60.56
62.14
62.92
64.7
65.2
65.59
66.78
67.9
68.13
68.99
69.13
69.33
70.21
69.97
70.66
71.19
71.22
71.04
71.31
71.99
72.12
72.08
72.26
72.57
72.71
73.01
72.84
72.86
73.37
74.31
72.84
73.02
73.4
72.93
73.41
73.37
73.64
73.46
73.75
73.71
73.93
73.83
74
74.09
73.91
74.16
74.2
74.12
73.98
74.37
74.36
74.41
74.54
74.66
74.47
74.68
74.6
74.78
74.76
74.71
74.93
74.89
74.83
74.88
75.05
75.05
75.01
75.15
75.14
75.25
75.31
75.26
75.25
75.39
75.33
75.44
75.52
75.45
75.49
75.58
75.62
75.68
75.62
75.67
75.75
75.8
75.74
75.72
75.76
75.84
75.9
75.98
75.92
75.92
75.98
75.98
75.93
76
76.11
76.11
76.11
75.97
76.23
76.22
76.28
76.24
76.14
76.21
76.32
76.28
76.33
76.27
76.42
76.36
76.4
76.42
76.41
76.37
76.52
76.47
76.41
76.41
76.61
76.63
76.51
76.63
76.54
76.49
76.52
76.61
76.67
76.59
76.77
76.64
76.64
76.63
76.63
76.72
76.65
76.75
76.61
76.74
76.74
76.68
76.75
76.78
76.79
76.74
76.87
76.84
76.73
76.76
76.86
76.95
77.05
76.95
77.07
76.93
76.98
76.9
76.88
76.98
77.02
77.15
77.13
77.04
77.1
77
76.93
77
77.08
77.15
77.12
77.15
76.94
77.15
77.26
77.05
77.13
77.14
77.09
77.19
77.16
77.35
77.39
77.34
77.19
77.26
77.09
77.39
77.35
77.18
77.34
77.3
77.42
77.25
77.42
77.4
77.35
77.25
77.55
77.47
77.54
77.55
77.39
77.25
77.61
77.53
77.24
77.72
77.38
77.5
77.68
77.39
77.3
77.94
77.61
77.4
77.72
77.58
77.45
77.5
77.34
77.5
77.52
77.69
77.82
77.46
77.27
77.74
77.54
77.61
77.87
77.4
77.58
