301
200
800
3
128
2
.940002
.910004
1.09001
.990005
.970001
.970001
.810013
.850006
.900009
.840011
.86
.820007
.830002
.810013
.830002
.770004
.76001
.770004
.770004
.76001
.740005
.700012
.730011
.690002
.680008
.660004
.700012
.700012
.650009
.630005
.630005
.590011
.62001
.580002
.590011
.61
.590011
.580002
.630005
.600006
.61
.630005
.650009
.670013
.640015
.650009
.62001
.640015
.62001
.640015
.62001
.61
.630005
.630005
.580002
.600006
.890015
2.15001
5.49
11.41
17.08
22.25
26.62
30.8
34.84
37.66
40.52
42.87
45.6
48.34
50.31
52.62
54.54
56.27
58.15
59.36
59.96
61.11
63
63.32
64.23
65.01
65.18
65.76
66.23
66.94
67.27
67.93
67.77
68.56
68.59
68.86
68.65
69.07
69.71
69.97
69.72
69.86
70.14
70.15
70.3
70.41
70.52
70.67
70.72
71.09
71.08
71.35
71.51
71.39
71.45
71.69
71.52
71.72
71.8
71.95
71.99
72.19
72.29
72.5
72.37
72.63
72.62
72.73
72.84
72.76
72.92
73.03
73.14
73.09
73.26
73.44
73.46
73.71
73.61
73.67
73.7
73.88
73.76
73.91
73.67
74.03
74.14
74.11
74.15
74.43
74.22
74.2
74.48
74.5
74.49
74.58
74.52
74.62
74.78
74.91
74.77
74.93
74.92
74.96
74.95
75.04
75.14
75.12
75.3
75.31
75.38
75.4
75.3
75.46
75.49
75.46
75.46
75.68
75.61
75.6
75.7
75.7
75.92
75.78
75.82
75.87
75.83
75.93
75.93
76.02
75.97
75.95
76.11
76.1
76.15
76.16
76.12
76.26
76.24
76.35
76.28
76.4
76.41
76.52
76.5
76.49
76.48
76.42
76.38
76.68
76.6
76.54
76.57
76.68
76.65
76.68
76.76
76.75
76.54
76.86
76.75
76.74
76.91
76.99
76.98
76.89
77.01
76.97
77
76.97
77.08
77.25
76.99
77.19
77.17
77.13
76.97
77.05
77.12
77.3
77.32
77.11
77.13
77.19
77.17
77.34
77.33
77.13
77.5
77.37
77.18
77.36
77.54
77.37
77.59
77.47
77.33
77.45
77.51
77.47
77.5
77.35
77.62
77.83
77.84
77.72
77.86
77.69
77.7
77.87
78
77.88
78.07
77.97
77.96
77.89
78.02
77.91
77.91
78.09
77.95
77.93
78.07
78.06
77.88
78.06
78.06
78
78.05
78.05
77.8
78.31
78.13
78.02
78.27
78.2
78.46
78.2
78.04
78.06
78.13
78.27
78
78.1
78.08
