301
200
800
3
128
2
.86
.670013
.550003
.810013
.87001
.76001
.680008
.690002
.720001
.700012
.730011
.730011
.710007
.700012
.680008
.710007
.730011
.670013
.710007
.640015
.640015
.640015
.660004
.62001
.62001
.61
.630005
.640015
.600006
.600006
.580002
.590011
.570007
.580002
.560013
.550003
.61
.590011
.570007
.590011
.61
.600006
.61
.590011
.590011
.600006
.61
.61
.570007
.600006
.600006
.580002
.62001
1.05
3.83
10.39
20.71
31.74
41.67
49.46
53.03
56.57
58.46
60.46
62.3
63.29
64.75
65.31
66.7
68.12
68.44
68.73
69.76
70.38
70.52
71.03
71.48
72.58
72.84
73.02
73.48
73.9
73.49
73.86
73.83
74.4
74.71
75.06
74.52
74.56
74.99
75.48
75.68
75.49
76.41
76.19
75.36
75.36
75.72
75.58
75.68
75.68
75.75
75.93
75.86
75.93
76.11
76.21
76.05
76.21
75.91
76.32
76.33
76.35
76.18
76.26
76.24
76.29
76.5
76.63
76.52
76.63
76.59
76.81
76.67
76.81
76.79
76.79
76.73
76.76
76.9
76.94
76.99
77.04
77.15
77.15
76.96
76.98
77.21
77.1
77.09
77.31
77.21
77.27
77.32
77.24
77.35
77.3
77.3
77.32
77.29
77.29
77.43
77.56
77.53
77.57
77.53
77.56
77.51
77.67
77.61
77.5
77.59
77.65
77.56
77.72
77.76
77.59
77.75
77.61
77.79
77.86
77.64
77.83
77.82
77.81
77.72
77.87
77.9
77.86
77.79
77.91
77.83
77.93
77.82
77.78
77.84
77.84
77.96
77.99
77.87
77.95
77.9
77.86
77.99
77.93
77.93
77.9
78.04
78
78.18
78.03
77.94
77.98
77.98
78.04
78.06
78.13
78.11
78.16
78.09
78.15
78
78.02
78.13
78.15
78.11
78.09
78.14
78.15
78.25
78.24
78.2
78.08
78.43
78.14
78.09
78.34
78.18
78.13
78.28
78.23
78.36
78.28
78.2
78.43
78.35
78.44
78.36
78.24
78.11
78.26
78.53
78.26
78.52
78.47
78.6
78.24
78.43
78.47
78.31
78.57
78.48
78.57
78.53
78.42
78.3
78.61
78.4
78.41
78.61
78.69
78.49
78.59
78.59
78.55
78.49
78.76
78.66
78.57
78.41
78.51
78.72
78.58
78.25
78.72
78.78
78.73
78.65
78.33
78.68
78.72
78.7
78.79
78.66
78.66
78.52
78.61
78.86
78.48
79.03
78.74
78.92
78.66
78.58
78.74
78.79
78.75
78.79
78.72
78.72
