301
200
800
3
128
2
1.05
1.02
.910004
.730011
.850006
.800003
.920013
.800003
.790008
.830002
.76001
.770004
.880005
.770004
.730011
.750015
.770004
.780014
.76001
.740005
.730011
.680008
.700012
.670013
.680008
.660004
.660004
.640015
.630005
.670013
.600006
.580002
.61
.590011
.560013
.560013
.560013
.560013
.570007
.590011
.600006
.62001
.62001
.62001
.580002
.61
.590011
.570007
.61
.600006
.590011
.600006
.590011
.590011
.530014
.540008
.62001
1.14001
2.81001
6.18001
9.68001
13.35
17.17
21.17
25.45
28.87
32.06
35.51
39.13
42.83
45.34
48.18
50.72
52.81
55.06
56.55
58.47
59.76
61.34
62.26
62.92
64.1
64.28
65
65.86
66.14
66.65
67.06
67.29
67.77
67.77
68.3
68.68
68.89
68.93
69.77
69.19
69.26
69.58
69.88
69.76
70.2
70.2
70.22
70.32
70.57
70.45
70.84
70.81
71
70.85
71.27
71.24
71.2
71.23
71.5
71.46
71.73
71.81
71.84
71.89
72.05
72.19
72.27
72.24
72.3
72.48
72.48
72.48
72.69
72.76
72.85
72.85
72.97
73.16
73.08
73.15
73.26
73.26
73.3
73.3
73.56
73.65
73.5
73.6
73.62
73.66
73.72
73.76
73.94
73.98
74.02
74.1
74.07
74.18
74.24
74.36
74.29
74.37
74.38
74.47
74.63
74.51
74.59
74.71
74.79
74.73
74.7
74.84
74.8
75.02
74.84
74.93
74.97
75.1
75.07
75.12
75.05
75.25
75.23
75.2
75.34
75.39
75.43
75.36
75.44
75.42
75.47
75.72
75.51
75.64
75.63
75.53
75.6
75.69
75.73
75.85
75.82
75.9
75.89
75.97
75.81
75.82
76.05
76.03
76.04
75.97
75.92
76.08
76.15
76.06
75.97
76.07
76.21
76.16
76.23
75.96
76.29
76.17
76.28
76.35
76.37
76.42
76.45
76.35
76.21
76.53
76.65
76.6
76.61
76.72
76.7
76.59
76.65
76.52
76.79
76.9
76.58
76.6
76.7
76.54
76.66
76.71
76.64
76.89
76.94
76.92
76.64
76.97
76.92
76.98
76.97
77.07
77.04
77.01
77.04
76.94
76.97
77.11
77.31
77.12
77.03
77.18
77.12
77.04
77.34
77.28
77.3
77.23
77.32
77.16
77.43
77.18
77.46
77.21
77.4
77.33
77.13
77.57
77.21
77.37
77.53
77.68
77.57
77.32
77.33
77.38
77.49
77.85
77.52
77.49
77.58
77.67
77.36
77.45
77.75
77.5
77.62
77.7
77.34
77.67
