301
200
800
3
128
2
.880005
.830002
.890015
.910004
.890015
.810013
.780014
.730011
.800003
.76001
.790008
.740005
.76001
.730011
.730011
.710007
.750015
.710007
.710007
.680008
.680008
.680008
.660004
.640015
.640015
.630005
.62001
.61
.62001
.570007
.550003
.540008
.560013
.540008
.540008
.560013
.560013
.540008
.550003
.540008
.530014
.560013
.590011
.61
.590011
.560013
.570007
.550003
.550003
.550003
.560013
.560013
.580002
.940002
3.46
9.29001
18.27
28.21
37.3
44.16
47.72
51.37
53.63
55.47
57.53
58.99
60.45
61.64
62.81
64.6
64.7
65.95
66.48
67.41
68.01
68.27
68.98
68.75
70.08
69.77
70.13
70.57
70.71
71.01
71.3
71.79
71.3
72.47
71.97
72.29
72.49
72.41
73.09
72.47
73.06
73.57
72.99
72.94
73.23
72.99
73.26
73.36
73.35
73.53
73.54
73.73
73.75
73.92
73.96
73.96
73.86
74.11
74.22
73.97
74.19
74.37
74.25
74.23
74.42
74.5
74.48
74.54
74.54
74.71
74.78
74.69
74.78
74.99
74.94
74.8
75
75.1
75.17
75.19
75.24
75.09
75.28
75.33
75.31
75.26
75.35
75.45
75.57
75.58
75.57
75.68
75.61
75.67
75.74
75.72
75.78
75.75
75.87
75.91
75.84
76.02
75.9
76.03
75.95
76.03
76.02
76.07
76.05
76.17
76.19
76.16
76.23
76.08
76.13
76.22
76.31
76.32
76.2
76.42
76.39
76.48
76.34
76.39
76.55
76.59
76.5
76.58
76.62
76.57
76.63
76.56
76.6
76.5
76.64
76.71
76.63
76.68
76.67
76.82
76.7
76.89
76.83
76.83
76.91
76.81
76.9
76.9
76.85
76.87
76.98
76.86
76.97
76.94
76.95
77.02
76.97
76.89
77.03
77.01
76.95
77.03
77.05
77.09
77.18
77.12
77.13
77.23
77.05
77.26
77.24
77.22
77.05
77.36
77.22
77.37
77.28
77.4
77.16
77.35
77.33
77.44
77.41
77.36
77.49
77.33
77.21
77.4
77.42
77.27
77.47
77.49
77.38
77.45
77.59
77.61
77.51
77.55
77.51
77.54
77.35
77.51
77.43
77.51
77.35
77.55
77.4
77.78
77.76
77.7
77.81
77.9
77.57
77.8
77.85
77.68
77.64
77.84
77.77
77.52
77.84
77.94
77.6
77.91
77.8
77.8
77.8
77.95
78.04
77.78
77.87
78.03
77.82
77.73
77.78
77.86
78.15
77.77
78.3
77.62
77.73
77.94
77.84
77.76
78.15
77.52
77.44
