301
200
800
3
128
2
1.37001
1.3
1.11
1.1
1.18
1.16
1.1
1.06001
1.01001
.960007
.990005
.970001
.920013
.950012
.890015
.920013
.940002
.880005
.86
.87001
.840011
.820007
.830002
.820007
.790008
.780014
.790008
.750015
.740005
.720001
.710007
.690002
.660004
.670013
.660004
.640015
.650009
.670013
.670013
.680008
.690002
.700012
.730011
.710007
.710007
.720001
.700012
.690002
.680008
.690002
.700012
.670013
.670013
.660004
.62001
.630005
.770004
1.45001
3.53001
7.35
11.27
15.4
19.25
23.23
27.42
30.94
34.78
38.08
41.68
45.24
47.74
50.74
52.76
55.26
57.3
59.03
60.25
61.38
62.9
63.93
64.93
65.66
65.99
66.79
67.37
68.05
68.4
68.93
69.02
69.53
69.79
69.75
70.02
70.54
70.73
70.37
70.7
70.89
70.92
71.3
71.54
71.44
71.67
71.75
71.76
71.85
72.05
72.09
72.44
72.38
72.33
72.41
72.6
72.47
72.67
72.84
72.93
73.02
72.97
73.18
73.19
73.23
73.27
73.52
73.7
73.52
73.56
73.67
73.62
73.76
73.79
73.9
73.94
74.08
74.09
74.1
74.19
74.23
74.44
74.36
74.42
74.54
74.59
74.59
74.56
74.68
74.78
74.75
74.65
74.76
74.82
74.88
74.89
74.87
74.92
74.98
74.92
75.09
75.18
75.03
75.25
75.37
75.23
75.37
75.36
75.31
75.38
75.57
75.56
75.47
75.58
75.5
75.65
75.76
75.72
75.75
75.82
75.84
75.86
75.98
75.9
75.92
75.9
76.01
75.95
76.1
76.09
76.06
76.07
76.14
76.18
76.24
76.22
76.24
76.33
76.28
76.37
76.3
76.3
76.36
76.44
76.44
76.51
76.54
76.52
76.54
76.55
76.61
76.51
76.66
76.68
76.69
76.72
76.6
76.67
76.71
76.83
76.85
76.85
76.88
76.77
76.92
76.67
77.02
76.81
76.98
77
77.26
76.9
77.09
76.96
76.96
77.02
77.12
77.1
76.88
77.25
77.01
77.03
77.23
77.27
77.3
77.3
77.22
77.17
77.31
77.24
77.14
77.19
77.33
77.4
77.53
77.48
77.4
77.33
77.47
77.32
77.24
77.38
77.43
77.36
77.45
77.55
77.55
77.55
77.57
77.46
77.77
77.5
77.67
77.71
77.74
77.82
77.49
77.52
77.59
77.53
77.51
77.61
77.56
77.59
77.8
77.8
77.73
77.63
77.82
77.71
77.73
77.59
77.71
77.76
77.77
77.68
77.7
77.65
77.75
78.07
77.52
77.69
78.12
77.71
