301
200
800
3
128
2
.920013
.930008
.830002
.790008
.800003
.800003
.770004
.830002
.840011
.76001
.720001
.730011
.720001
.720001
.710007
.680008
.750015
.720001
.690002
.690002
.670013
.660004
.670013
.640015
.650009
.640015
.630005
.61
.62001
.590011
.560013
.550003
.550003
.570007
.530014
.550003
.570007
.560013
.560013
.560013
.570007
.580002
.560013
.560013
.580002
.550003
.580002
.560013
.580002
.550003
.540008
.570007
.61
1.06001
3.87001
10.05
19.29
28.83
37.51
44.07
48.29
50.93
53.06
55.32
57.62
58.31
60.59
61.72
62.87
64.29
65.06
65.69
66.78
67.33
67.73
68.06
69.12
69.6
69.62
69.93
70.7
70.76
71.06
71.11
71.34
71.78
72.42
71.8
71.9
72.27
72.13
72.61
72.07
73.59
72.54
72.75
73.08
73.12
73.1
73.41
73.44
73.45
73.64
73.54
73.69
73.9
74.09
74.04
74.01
74.05
74.09
74.24
74.28
74.56
74.27
74.63
74.44
74.55
74.63
74.85
74.72
74.77
74.87
74.91
74.96
74.82
75.04
74.91
75.13
75.08
75.15
75.16
75.35
75.25
75.36
75.39
75.51
75.63
75.62
75.54
75.65
75.63
75.82
75.88
75.82
75.95
75.83
75.9
75.93
76.01
75.93
76.02
76.05
76.06
76.24
76.13
76.17
76.15
76.28
76.14
76.17
76.36
76.21
76.35
76.42
76.24
76.42
76.54
76.54
76.56
76.52
76.53
76.57
76.54
76.69
76.55
76.57
76.73
76.66
76.79
76.77
76.81
76.78
76.85
76.78
76.85
76.91
76.86
76.91
76.89
76.98
76.96
77.15
76.9
77.18
77.17
77.06
77.05
77.02
77.18
77.02
77.14
77.23
77.35
77.12
77.21
77.25
77.27
77.17
77.27
77.27
77.36
77.14
77.37
77.32
77.44
77.13
77.41
77.27
77.35
77.53
77.36
77.29
77.49
77.55
77.59
77.58
77.57
77.49
77.67
77.49
77.54
77.43
77.5
77.48
77.56
77.67
77.52
77.39
77.7
77.61
77.77
77.75
77.67
77.53
77.85
77.9
77.84
77.94
77.79
77.81
77.8
77.93
77.88
77.68
77.91
77.88
77.68
77.85
77.93
77.69
78.02
77.9
78
77.93
77.72
77.94
77.92
78.09
77.8
77.96
78.13
78.08
78.14
77.88
78.12
78.24
78.26
77.86
78.16
77.88
78.21
78.07
78.5
78.14
77.9
78.19
77.99
78.16
78.25
78.31
78.35
78.12
78.1
78.33
77.83
78.32
78.32
78.2
78.48
78.16
