301
200
800
3
128
2
.980011
.710007
.930008
.970001
.87001
.920013
.840011
.910004
.830002
.810013
.840011
.840011
.840011
.790008
.800003
.790008
.820007
.780014
.800003
.780014
.740005
.730011
.710007
.720001
.720001
.670013
.660004
.650009
.61
.61
.640015
.600006
.600006
.580002
.590011
.590011
.600006
.61
.61
.640015
.640015
.61
.640015
.640015
.640015
.650009
.640015
.640015
.640015
.640015
.660004
.62001
.640015
.61
.61
.61
.950012
2.42001
6.37001
13.11
19.13
24.79
29.17
33.24
36.79
39.51
42.19
44.5
46.67
49.3
51.12
52.78
54.67
56.43
57.59
58.67
60.03
61.11
62.53
62.97
63.82
64.72
64.62
65.49
66.04
66.38
67.1
67.44
67.48
67.77
68.19
68.03
68.69
68.34
69.92
69.69
68.99
69.31
69.74
69.67
69.73
69.86
70.05
70.07
70.28
70.48
70.57
70.79
70.69
70.94
70.85
71.15
71
71.11
71.15
71.17
71.39
71.45
71.72
71.81
71.89
71.89
71.93
72.09
72.09
72.23
72.47
72.35
72.36
72.57
72.47
72.64
72.65
72.93
72.99
72.9
72.99
73.03
73.04
73.09
73.21
73.24
73.24
73.43
73.48
73.5
73.57
73.57
73.61
73.7
73.75
73.72
73.92
73.72
74.02
73.98
73.98
74.13
74.07
74.11
74.12
74.14
74.14
74.32
74.34
74.45
74.44
74.37
74.52
74.52
74.6
74.63
74.55
74.69
74.73
74.7
74.7
74.76
74.97
74.91
74.81
75.08
75.02
75.01
74.95
75.08
75.1
74.94
75.25
75.32
75.11
75.29
75.25
75.18
75.21
75.42
75.44
75.47
75.4
75.38
75.55
75.48
75.53
75.57
75.62
75.77
75.56
75.73
75.66
75.62
75.81
75.76
75.81
75.77
75.7
75.76
75.81
75.94
75.93
76
75.96
76.03
75.95
75.97
76.1
75.98
75.99
76.2
76.14
76.15
76.24
76.19
76.28
76.15
76.12
76.27
76.17
76.1
76.24
76.11
76.02
76.2
76.32
76.09
76.4
76.3
76.48
76.3
76.45
76.62
76.44
76.4
76.57
76.56
76.48
76.5
76.62
76.6
76.54
76.63
76.68
76.67
76.77
76.66
76.78
76.81
76.63
76.8
76.74
76.74
76.54
76.87
76.95
76.74
76.92
77.08
76.61
76.88
77.01
76.64
76.9
76.9
76.94
76.73
77.05
76.7
76.83
76.82
76.8
77.1
76.93
77.04
77.01
77.01
76.77
77.04
77.02
77.21
77.04
76.59
76.83
