301
200
800
3
128
2
.840011
.810013
.820007
.76001
.680008
.76001
.740005
.690002
.670013
.670013
.710007
.670013
.690002
.660004
.640015
.680008
.650009
.650009
.640015
.640015
.630005
.630005
.62001
.600006
.590011
.590011
.590011
.590011
.560013
.530014
.530014
.550003
.540008
.560013
.520004
.550003
.540008
.560013
.520004
.550003
.540008
.540008
.530014
.570007
.540008
.570007
.560013
.560013
.540008
.560013
.590011
.550003
.600006
1.01001
3.90001
10.49
20.44
31.02
40.32
47.54
51.24
54.36
56.11
57.7
59.4
60.56
61.31
62.74
63.64
64.9
65.34
65.21
66.24
67.36
67.8
67.62
68.44
68.49
69.63
69.18
70.17
70.29
70.62
70.46
71.06
71.48
71.18
71.44
71.26
71.61
72.04
71.9
72.29
72.18
72.53
73.58
72.41
72.59
72.82
72.81
72.79
72.84
73.06
72.96
73.06
73.36
73.24
73.5
73.44
73.57
73.44
73.78
73.76
73.76
73.7
74
73.95
74.08
74.06
74.33
74.15
74.27
74.34
74.34
74.41
74.46
74.52
74.47
74.5
74.67
74.74
74.86
74.89
74.96
74.92
74.95
75.05
75.03
75.1
74.98
75.12
75.18
75.29
75.37
75.29
75.28
75.37
75.28
75.45
75.56
75.64
75.54
75.58
75.63
75.71
75.79
75.75
75.76
75.73
75.87
75.86
75.82
75.88
75.96
76.01
76.01
76.05
75.93
75.96
76.04
76.06
76.15
76.13
76.28
76.21
76.36
76.22
76.15
76.3
76.26
76.25
76.35
76.43
76.42
76.38
76.39
76.52
76.37
76.44
76.56
76.56
76.46
76.43
76.5
76.5
76.63
76.54
76.64
76.61
76.59
76.72
76.75
76.8
76.74
76.81
76.81
76.8
76.75
76.84
76.98
76.88
76.83
76.86
76.77
76.76
76.93
76.97
76.92
77
77.14
77.05
76.99
77
77.15
77.06
76.97
77.1
77.22
77.18
77.32
77.12
77.11
77.03
77.3
77.17
77.24
77.18
77.18
77.22
77.37
77.12
77.28
77.45
77.2
77.34
77.41
77.42
77.3
77.36
77.36
77.39
77.4
77.38
77.43
77.53
77.38
77.36
77.49
77.37
77.73
77.57
77.52
77.49
77.36
77.62
77.54
77.51
77.49
77.8
77.59
77.52
77.74
77.63
77.62
77.66
77.64
77.58
77.65
77.66
77.59
77.72
77.92
78.03
77.73
77.85
77.77
77.74
77.52
77.65
77.86
77.85
77.9
78.08
77.9
77.57
77.79
77.98
78.1
78.08
77.86
77.84
