301
200
800
3
128
2
1.29
1.17001
1.1
1.17001
1.11
1.08
1.01001
.910004
.960007
.930008
.930008
.940002
.87001
.930008
.880005
.850006
.86
.840011
.880005
.810013
.830002
.810013
.800003
.810013
.750015
.790008
.720001
.730011
.690002
.720001
.690002
.650009
.670013
.640015
.660004
.660004
.670013
.660004
.650009
.660004
.660004
.690002
.680008
.670013
.680008
.680008
.670013
.690002
.670013
.660004
.660004
.650009
.650009
.630005
.640015
.650009
.880005
2.1
5.33
10.7
15.82
20.57
24.88
28.85
32.58
35.61
38.45
41.32
43.92
46.55
48.89
50.85
53.31
55.14
56.42
57.97
59.2
60.45
61.8
63.24
63.64
64.47
64.83
65.73
66.05
66.88
67.59
67.96
68.04
68.31
68.78
68.85
68.81
69.85
69.94
69.35
69.76
69.95
69.99
70.42
70.57
70.6
70.64
70.79
71.06
71.16
71.34
71.36
71.23
71.75
71.83
71.84
71.88
71.88
71.93
71.97
72.1
72.24
72.29
72.46
72.51
72.57
72.69
72.82
72.81
73.05
72.92
73.09
73.07
73.12
73.18
73.22
73.28
73.39
73.48
73.61
73.68
73.79
73.93
73.72
73.78
73.89
74.02
73.93
74
74.15
74.25
74.18
74.25
74.31
74.4
74.48
74.49
74.46
74.53
74.49
74.61
74.81
74.79
74.77
74.91
74.95
74.89
74.98
75.09
74.96
75.02
75.28
75.13
75.21
75.25
75.28
75.35
75.43
75.47
75.59
75.39
75.54
75.38
75.59
75.56
75.63
75.64
75.67
75.69
75.78
75.84
75.8
75.83
75.89
76.02
75.89
76.02
75.86
76.09
76.04
76.12
76.03
76.06
76.29
76.07
76.22
76.26
76.24
76.18
76.4
76.39
76.57
76.34
76.46
76.33
76.4
76.47
76.53
76.58
76.61
76.45
76.61
76.53
76.47
76.54
76.63
76.55
76.68
76.72
76.86
76.9
76.89
76.63
76.92
76.85
76.92
76.94
76.98
76.87
76.82
76.85
76.82
76.88
77.06
77.24
76.87
77.16
76.91
76.89
77.1
77.19
77.1
77.13
76.97
77.17
77.23
77.39
77.19
77.17
77.19
77.24
77.18
77.27
77.5
77.36
77.32
77.16
77.43
77.27
77.24
77.36
77.52
77.28
77.53
77.33
77.76
77.49
77.53
77.37
77.61
77.52
77.55
77.53
77.46
77.3
77.49
77.41
77.53
77.67
77.58
77.75
77.58
77.68
77.56
77.69
77.71
77.46
77.64
77.54
77.64
77.59
78.13
78.12
77.78
77.76
