301
200
800
3
128
2
1.03001
1.16
.710007
.600006
.790008
.820007
.790008
.720001
.690002
.740005
.680008
.660004
.750015
.680008
.730011
.700012
.650009
.680008
.660004
.640015
.630005
.650009
.630005
.62001
.62001
.600006
.61
.590011
.580002
.560013
.560013
.570007
.560013
.540008
.540008
.540008
.560013
.540008
.550003
.550003
.580002
.560013
.570007
.560013
.560013
.560013
.560013
.550003
.550003
.550003
.590011
.560013
.590011
1.04
3.82
10.14
19.53
29.74
38.87
45.36
49.35
51.76
54.19
56.29
57.83
59.25
60.71
61.83
62.81
63.8
64.5
65.33
65.92
66.91
67.95
68.48
68.71
69.26
69.48
69.71
70.35
70.52
71.07
71.42
71.17
71.6
71.78
71.82
71.99
72.86
72.5
72.46
72.26
72.36
72.94
72.47
72.95
72.96
73.11
73.42
73.22
73.39
73.64
73.7
73.59
73.4
73.88
73.94
73.97
74.01
74.08
73.97
74.33
74.46
74.52
74.4
74.33
74.51
74.68
74.62
74.73
74.59
74.86
74.86
74.84
74.89
74.86
75.03
75.07
75.14
75.07
75.18
75.21
75.15
75.46
75.35
75.5
75.39
75.5
75.52
75.58
75.72
75.68
75.77
75.66
75.74
75.76
75.79
75.73
75.91
75.89
76
76.02
76.01
76.02
76.07
76.02
76.08
76.06
76.25
76.15
76.27
76.31
76.33
76.27
76.28
76.39
76.36
76.41
76.42
76.5
76.41
76.57
76.48
76.6
76.59
76.62
76.63
76.64
76.64
76.81
76.76
76.69
76.79
76.63
76.72
76.72
76.8
76.91
76.94
76.95
76.76
77.04
76.89
77.08
77.15
76.95
76.88
77.01
77.08
77.15
77.16
77.11
77.04
77.14
77.3
77.29
77.22
77.28
77.17
77.28
77.37
77.36
77.32
77.27
77.43
77.45
77.22
77.35
77.42
77.3
77.38
77.48
77.47
77.44
77.55
77.76
77.29
77.4
77.64
77.37
77.44
77.51
77.49
77.57
77.56
77.5
77.58
77.62
77.56
77.62
77.61
77.69
77.67
77.81
77.54
77.97
77.76
77.87
77.7
77.73
77.8
77.82
77.98
77.83
77.91
77.91
77.92
77.79
77.87
78
77.9
77.89
77.77
77.71
77.82
77.87
77.61
77.75
78.02
77.9
78.17
77.93
77.98
78
78.01
78.04
78.09
77.89
77.9
78.02
78.22
78.18
78.28
77.91
78.1
77.99
78.15
78.18
77.97
78.02
78.16
78
78.11
77.99
78.21
78.26
78.17
78.19
78.26
78.26
