301
200
800
3
128
2
1.24
1.04
1.20001
1.1
1.04
1.11
1.00001
1.11
.970001
.780014
1.03001
1.00001
.980011
.900009
.920013
.890015
.880005
.87001
.930008
.840011
.850006
.800003
.76001
.810013
.76001
.750015
.76001
.730011
.700012
.680008
.640015
.630005
.660004
.630005
.650009
.650009
.650009
.62001
.680008
.670013
.690002
.680008
.680008
.680008
.680008
.680008
.680008
.630005
.680008
.680008
.640015
.690002
.670013
.650009
.61
.590011
.86
1.97
5.05
10.77
15.96
21
25.34
29.27
33.1
36.2
38.86
41.35
44.13
47.1
49.22
51.38
53.56
55.15
56.98
58.07
60
60.77
62.11
62.75
63.65
64.28
64.76
65.73
66.01
66.96
67.02
67.42
68.08
68.7
68.08
68.76
69.09
69
69.66
68.35
69.22
69.53
69.77
69.83
70.03
70.41
70.24
70.63
70.51
70.46
70.81
71.01
70.95
71.14
71.06
71.34
71.44
71.45
71.3
71.67
71.72
71.57
71.97
71.83
72.07
71.96
72.06
72.06
72.39
72.26
72.26
72.5
72.48
72.65
72.75
72.73
72.69
72.83
72.98
72.95
72.94
73.13
73.03
73.07
73.3
73.39
73.31
73.37
73.43
73.33
73.37
73.53
73.48
73.63
73.58
73.69
73.6
73.79
73.79
73.86
73.91
73.84
73.95
74.12
74.08
74.15
74.07
74.16
74.21
74.26
74.2
74.24
74.25
74.37
74.4
74.36
74.3
74.49
74.59
74.6
74.65
74.63
74.61
74.58
74.74
74.67
74.79
74.78
74.86
74.82
74.88
74.93
74.93
74.79
74.97
75.07
75.08
75.1
75.22
75.22
75.18
75.07
75.2
75.2
75.2
75.21
75.3
75.31
75.24
75.33
75.28
75.31
75.43
75.42
75.44
75.31
75.41
75.45
75.38
75.52
75.49
75.51
75.46
75.51
75.58
75.57
75.66
75.65
75.64
75.56
75.73
75.55
75.61
75.73
75.55
75.7
75.66
75.7
75.75
75.86
75.64
75.81
75.8
75.65
75.95
75.8
75.77
75.88
75.93
75.9
75.71
75.97
75.99
76.05
75.77
76.11
76.11
76.26
76.12
76.12
75.85
75.95
75.99
76.05
76.15
76.14
76.21
76.19
75.85
75.96
76.24
76.04
76.13
76.23
76.07
76.21
76.36
76.46
76.13
76.17
76.36
76.38
76.37
76.31
76.14
76.21
76.2
76.43
76.33
76.32
76.33
76.18
76.16
76.52
76.1
76.36
76.34
76.82
76.37
76.36
76.44
76.21
76.3
76.44
76.33
