301
200
800
3
128
2
1.07
1.03001
1.05
1.07
.960007
.960007
1.00001
.930008
.940002
.930008
.930008
.950012
.850006
.900009
.880005
.850006
.850006
.86
.850006
.830002
.790008
.780014
.790008
.770004
.770004
.740005
.76001
.740005
.730011
.680008
.660004
.670013
.640015
.630005
.660004
.62001
.640015
.650009
.630005
.670013
.660004
.680008
.670013
.660004
.670013
.640015
.670013
.700012
.670013
.660004
.640015
.650009
.640015
.62001
.62001
.590011
.800003
1.84001
4.71001
9.78002
14.44
19.4
23.99
28.35
32.64
35.77
38.91
41.98
44.92
48.25
50.33
53.23
55.16
57.99
58.89
60.31
61.53
63.3
64.1
65.24
66.15
66.62
67.7
67.85
68.72
68.9
69.05
69.7
70.21
70.21
70.84
71.39
71.17
71.84
70.8
71.24
71.55
71.66
71.6
71.66
71.76
71.97
72.16
72.24
72.38
72.55
72.4
72.74
72.64
72.82
72.81
72.97
73.11
72.95
73.11
73.16
73.21
73.37
73.51
73.43
73.57
73.49
73.71
73.87
73.73
73.98
73.92
73.9
74.15
74
74.16
74.17
74.27
74.49
74.29
74.52
74.46
74.55
74.57
74.47
74.66
74.68
74.67
74.85
74.84
74.92
75.05
75.08
75.01
74.97
75.12
75.13
75.14
75.27
75.2
75.31
75.26
75.29
75.39
75.39
75.42
75.53
75.51
75.51
75.44
75.66
75.69
75.71
75.66
75.76
75.74
75.86
75.82
75.93
76
75.98
75.95
76.06
76.01
76
76.04
76.04
76.1
76.16
76.25
76.22
76.16
76.12
76.16
76.24
76.32
76.46
76.33
76.35
76.25
76.4
76.49
76.5
76.44
76.62
76.55
76.52
76.46
76.5
76.67
76.64
76.71
76.51
76.69
76.68
76.75
76.8
76.88
76.75
76.82
76.79
76.71
76.81
76.76
76.89
76.86
76.94
76.79
76.98
76.88
77.02
77
76.93
77.15
76.98
76.99
77.34
77.16
77
77.15
77.06
77.18
77.25
77.19
77.34
77.14
77.22
77.15
77.31
77.36
77.05
77.05
77.19
77.46
77.22
77.22
77.47
77.29
77.44
77.46
77.2
77.24
77.2
77.24
77.27
77.36
77.32
77.53
77.52
77.34
77.34
77.48
77.66
77.59
77.37
77.56
77.41
77.71
77.7
77.46
77.76
77.38
77.83
77.57
77.74
77.81
77.63
77.49
77.83
77.87
77.68
77.44
77.59
77.58
77.78
77.93
77.32
77.8
77.78
77.71
78.05
77.76
77.94
77.86
77.85
77.52
