301
200
800
3
128
2
1.12001
1.19
1.06001
1.16
1.1
.990005
1.08
1.12001
1.04
.970001
.930008
.930008
.940002
.880005
.930008
.930008
.910004
.86
.880005
.86
.840011
.800003
.800003
.790008
.770004
.770004
.770004
.740005
.740005
.720001
.680008
.680008
.650009
.670013
.670013
.660004
.670013
.660004
.650009
.660004
.690002
.700012
.710007
.670013
.700012
.680008
.690002
.680008
.690002
.670013
.670013
.670013
.670013
.650009
.630005
.61
.87001
1.87001
4.76001
9.82001
14.86
19.69
23.88
28.12
32.24
36.04
39.16
42.12
45.08
48.24
50.82
53.26
55.06
57.05
59.03
60.62
62.36
63.25
64.56
64.92
66.22
66.78
67.19
68.13
68.5
69.21
69.62
69.6
69.88
70.54
71.06
71.04
70.89
71.52
72.07
70.99
71.56
71.77
71.85
72.18
72.31
72.33
72.36
72.61
72.69
72.76
72.83
72.9
72.9
73.21
73.07
73.26
73.26
73.39
73.36
73.51
73.74
73.65
73.72
73.93
73.91
74.06
74.07
74.26
74.24
74.23
74.45
74.26
74.37
74.52
74.44
74.57
74.71
74.64
74.9
74.78
74.89
74.99
75.1
74.98
74.95
75.21
75.28
75.31
75.34
75.32
75.45
75.58
75.41
75.4
75.55
75.68
75.61
75.54
75.73
75.66
75.73
75.8
75.85
75.72
76
75.95
75.91
75.96
76.1
76.06
76.06
76.18
76.2
76.22
76.21
76.31
76.33
76.4
76.45
76.43
76.37
76.51
76.51
76.55
76.45
76.64
76.63
76.56
76.66
76.72
76.7
76.63
76.81
76.69
76.8
76.81
76.87
76.8
77.05
76.94
77
77.04
77.11
76.99
76.93
77.03
77.11
77.22
77.05
77.16
77.07
77.22
77.18
77.24
77.3
77.26
77.32
77.36
77.32
77.37
77.36
77.53
77.26
77.52
77.52
77.44
77.4
77.52
77.46
77.58
77.71
77.73
77.53
77.61
77.6
77.58
77.6
77.73
77.78
77.67
77.67
77.57
77.71
77.83
77.85
77.82
77.95
77.68
77.88
77.86
77.93
77.84
78.01
77.85
77.98
78.36
78.05
78.08
78.02
78.09
77.81
77.87
77.93
78.3
77.93
78.09
78.08
78.23
78.16
78.07
78.26
78.35
78.38
78.19
78.14
78.53
78.43
78.31
78.22
78.44
78.31
78.2
78.29
78.16
78.2
78.43
78.42
78.5
78.49
78.43
78.43
78.36
78.28
78.47
78.01
78.34
78.53
78.33
78.2
78.83
78.58
78.56
78.25
78.79
78.42
