301
200
800
3
128
2
1.17001
1.09001
1.22
1.03001
1.18
1.07
1.04
1.07
.950012
.960007
1.05
.990005
.980011
.980011
.930008
.920013
.940002
.880005
.900009
.850006
.850006
.820007
.840011
.830002
.800003
.770004
.780014
.780014
.720001
.720001
.700012
.710007
.660004
.680008
.680008
.680008
.670013
.680008
.680008
.710007
.740005
.700012
.690002
.720001
.710007
.720001
.720001
.690002
.690002
.680008
.720001
.710007
.680008
.650009
.650009
.660004
.840011
1.83
4.52
9.17002
13.79
17.99
22.38
26.53
30.59
33.65
36.96
40.28
42.88
46.05
48.34
50.87
53.12
55.41
57.02
58.64
59.91
61.26
61.83
63
64.35
65.18
65.55
66.13
66.86
67.2
68.1
68.17
68.39
68.48
68.73
69.47
69.42
69.76
69.66
69.95
70.09
70.18
70.16
70.56
70.72
70.91
70.96
71.03
71.21
71.15
71.54
71.52
71.46
71.74
71.75
71.9
72.25
72.17
72.16
72.18
72.56
72.21
72.46
72.57
72.63
72.83
72.88
73.08
72.87
73.02
73.15
73.04
73.3
73.27
73.23
73.44
73.45
73.61
73.76
73.7
73.63
73.95
73.93
73.81
74.07
73.94
74.06
74.11
74.16
74.24
74.3
74.33
74.31
74.37
74.56
74.6
74.51
74.48
74.74
74.66
74.75
74.82
74.89
74.88
74.97
75
74.98
75.12
75.04
75.06
75.02
75.22
75.23
75.3
75.32
75.34
75.48
75.52
75.52
75.49
75.6
75.53
75.59
75.67
75.61
75.68
75.82
75.75
75.76
75.79
75.82
75.93
76
75.86
76.01
76.02
76.14
76.04
76.13
76.1
76.2
76.17
76.14
76.27
76.18
76.25
76.32
76.43
76.1
76.32
76.44
76.54
76.27
76.39
76.44
76.43
76.39
76.54
76.55
76.6
76.56
76.69
76.59
76.62
76.47
76.69
76.66
76.88
76.9
76.87
77.02
77.07
76.79
76.93
76.81
76.76
76.83
76.83
76.96
76.94
77.05
76.97
76.97
77.12
77.06
77.01
77
77.08
77.04
77.07
77.28
77.24
77.21
77.01
77.13
77.48
77.42
77.25
77.42
77.32
77.14
77.32
77.2
77.49
77.28
77.32
77.28
77.74
77.45
77.42
77.53
77.36
77.33
77.55
77.38
77.58
77.45
77.71
77.61
77.56
77.58
77.71
77.58
77.67
77.46
77.57
77.37
77.62
77.74
77.35
77.42
77.66
77.74
77.55
77.48
77.78
77.48
77.83
77.66
77.75
77.64
78.06
77.78
77.96
77.95
