301
200
800
3
128
2
.86
.780014
.840011
1.00001
.820007
.930008
.850006
.780014
.830002
.780014
.770004
.780014
.730011
.740005
.770004
.730011
.750015
.730011
.680008
.700012
.710007
.710007
.670013
.670013
.650009
.650009
.650009
.630005
.62001
.630005
.62001
.61
.570007
.590011
.560013
.590011
.570007
.600006
.600006
.580002
.590011
.61
.62001
.640015
.62001
.600006
.61
.590011
.600006
.61
.600006
.600006
.650009
1.11
4.04001
10.54
19.99
30.19
38.96
45.67
49.66
52.58
54.91
57.03
59.14
60.26
61.46
62.14
63.85
64.91
65.99
67.05
67.28
68.06
69.05
68.82
69.92
69.82
70.42
70.96
71.18
70.99
71.52
71.99
72
72.2
72.53
72.97
72.7
72.57
72.7
73.39
73.16
73.29
73.97
73.63
73.73
73.56
73.59
73.93
74.06
73.98
74.18
74.3
74.24
74.43
74.48
74.36
74.6
74.62
74.7
74.9
74.98
75.02
74.78
74.93
75.09
75.2
75.24
75.23
75.18
75.22
75.36
75.48
75.35
75.36
75.45
75.45
75.39
75.43
75.57
75.61
75.64
75.84
75.84
75.98
75.94
75.87
76.02
75.93
75.87
75.97
76.07
76.01
76.2
76.19
76.26
76.11
76.29
76.33
76.34
76.34
76.45
76.39
76.51
76.36
76.48
76.51
76.57
76.54
76.6
76.69
76.52
76.55
76.76
76.71
76.67
76.82
76.76
76.87
76.85
76.86
76.94
76.92
76.85
76.91
76.87
76.94
77.04
77.11
77.07
77.05
77.03
77.15
77.12
77.16
77.27
77.26
77.23
77.12
77.23
77.24
77.24
77.05
77.37
77.27
77.43
77.36
77.26
77.38
77.33
77.29
77.33
77.37
77.34
77.47
77.43
77.52
77.45
77.54
77.61
77.36
77.48
77.61
77.59
77.56
77.58
77.57
77.56
77.68
77.62
77.6
77.64
77.7
77.75
77.82
77.78
77.83
77.75
77.73
77.72
77.87
77.92
77.9
77.93
77.72
77.86
77.89
77.94
78.1
78.11
77.94
78.04
77.87
77.95
77.97
78.23
78.02
78.06
77.82
78.14
78.35
78.15
77.94
78.03
78.01
77.95
77.9
78.02
78.16
77.92
78
78.1
78.23
78.08
78.17
78.06
77.91
78.21
78.28
78.15
78.22
78.24
78.16
78.05
78.16
78.13
78.4
78.17
78.23
78.1
78.3
78.3
78.32
78.32
78.3
78.38
78.13
78.41
78.24
78.18
78.63
78.19
78.55
77.98
78.26
78.67
78.42
78.18
78.55
78.29
