301
200
800
3
128
2
.710007
.770004
.880005
.740005
.850006
.720001
.800003
.810013
.700012
.700012
.710007
.680008
.730011
.680008
.700012
.650009
.670013
.670013
.680008
.670013
.670013
.650009
.660004
.660004
.630005
.61
.590011
.600006
.62001
.570007
.560013
.570007
.560013
.560013
.560013
.560013
.590011
.570007
.550003
.570007
.590011
.61
.580002
.590011
.570007
.600006
.580002
.580002
.580002
.580002
.580002
.590011
.590011
1.02
3.57
9.44
18.83
28.72
37.38
44.44
48.17
51.25
53.11
55.43
57.47
58.61
59.97
61.26
62.37
63.33
63.98
65.75
66.62
66.83
66.28
67.66
67.77
68.43
68.64
69.43
69.66
69.64
70.04
70.12
70.46
70
70.85
70.87
71.36
71.85
71.95
71.74
71.48
71.99
71.53
71.96
72.31
72.21
72.16
72.3
72.39
72.64
72.64
72.76
72.75
73.04
72.93
73.17
73.07
73.32
73.15
73.33
73.66
73.31
73.49
73.47
73.48
73.67
73.74
73.77
73.85
73.77
74.05
74
74.11
74.21
74.03
74.19
74.33
74.21
74.26
74.33
74.38
74.53
74.31
74.59
74.53
74.64
74.59
74.8
74.79
74.92
74.75
74.95
74.84
75.04
74.96
75.02
75.01
75.03
75.15
75.11
75.14
75.18
75.15
75.29
75.31
75.31
75.23
75.32
75.38
75.44
75.37
75.27
75.46
75.41
75.47
75.58
75.65
75.44
75.6
75.62
75.52
75.69
75.75
75.65
75.84
75.77
75.77
75.9
75.81
75.78
75.87
75.9
75.98
76.06
75.88
75.94
76.01
76.03
75.99
76.18
76.12
76.1
76.07
76.04
76.28
76.17
76.21
76.21
76.3
76.23
76.2
76.21
76.32
76.35
76.23
76.16
76.2
76.26
76.47
76.26
76.41
76.32
76.44
76.48
76.42
76.55
76.43
76.39
76.47
76.44
76.57
76.47
76.45
76.51
76.54
76.71
76.66
76.67
76.55
76.91
76.58
76.58
76.73
76.84
76.81
76.78
76.73
76.62
76.82
76.76
76.8
76.83
76.81
76.85
76.69
76.75
76.96
76.83
76.97
76.88
76.77
76.69
76.88
76.81
76.81
76.94
76.85
76.91
76.93
76.88
76.99
76.96
76.82
76.93
76.95
77.01
77.17
77.13
76.97
76.87
77.08
77.22
77.25
77.1
77.05
76.96
76.96
76.88
77.19
76.99
77.1
77.31
77.2
77.01
76.85
76.98
76.89
77.53
77.27
76.98
77.12
77.1
77.37
77.12
77.45
77.18
77.28
77.13
77.05
