301
200
800
3
128
2
.910004
1.15
.660004
.910004
.980011
.87001
.840011
.920013
.910004
.800003
.87001
.87001
.86
.86
.840011
.86
.820007
.840011
.820007
.810013
.76001
.790008
.76001
.740005
.730011
.730011
.720001
.690002
.690002
.670013
.660004
.640015
.630005
.630005
.62001
.61
.630005
.62001
.650009
.640015
.660004
.680008
.660004
.690002
.690002
.660004
.660004
.660004
.690002
.650009
.680008
.640015
.670013
.640015
.630005
.650009
1.00001
2.53001
6.86
14.39
20.94
27.17
32.05
36.27
40.49
42.75
45.76
48.08
50.03
52.49
54.04
56.28
57.29
59.35
60.09
61.22
62.58
63.79
64.23
65.83
66.22
66.66
67.53
67.92
68.58
68.92
69.32
69.58
69.92
70.15
70.16
70.49
71.18
70.46
70.79
71.21
71.04
71.32
71.31
71.52
71.58
71.68
71.94
72.12
72.05
72.2
72.04
72.17
72.28
72.4
72.42
72.57
72.75
72.64
72.72
72.65
73.05
73.06
73.13
73.19
73.48
73.19
73.28
73.49
73.55
73.62
73.67
73.79
73.9
73.92
73.91
73.94
73.96
74.18
74.12
74.15
74.17
74.24
74.29
74.41
74.25
74.54
74.52
74.56
74.56
74.57
74.73
74.78
74.74
74.72
74.82
74.72
74.96
75.06
74.95
74.98
74.97
75.09
74.94
75.12
75.32
75.35
75.31
75.32
75.24
75.3
75.45
75.44
75.59
75.6
75.63
75.53
75.53
75.59
75.79
75.63
75.8
75.67
75.85
75.87
76
75.86
75.95
75.93
76.01
76.05
76.01
76.05
76.04
76.02
76.07
76.15
76.29
76.16
76.05
76.18
76.32
76.27
76.17
76.29
76.32
76.34
76.31
76.31
76.42
76.53
76.45
76.41
76.41
76.52
76.49
76.56
76.64
76.52
76.54
76.55
76.49
76.57
76.73
76.69
76.63
76.73
76.8
76.75
76.65
76.79
76.8
76.79
76.8
76.89
76.65
76.95
76.9
76.86
76.91
76.89
76.93
76.87
76.9
77.07
77.06
76.96
76.85
77.1
76.99
76.88
77.02
77.06
77.24
77.07
77.1
77.17
77.12
77.13
77.37
77.37
76.93
77.05
76.97
77.32
77.27
77.12
77.22
77.57
77.12
77.04
77.41
77.56
77.44
77.31
77.45
77.3
77.39
77.32
77.33
77.53
77.31
77.24
77.42
77.44
77.42
77.48
77.54
77.57
77.42
77.6
77.48
77.48
77.41
77.51
77.63
77.27
77.6
77.72
77.71
77.71
77.72
77.64
77.81
77.8
77.56
