301
200
800
3
128
2
.800003
.940002
.780014
.750015
.780014
.76001
.790008
.660004
.740005
.720001
.740005
.680008
.670013
.670013
.680008
.670013
.680008
.670013
.680008
.670013
.660004
.630005
.61
.600006
.570007
.61
.580002
.590011
.600006
.550003
.560013
.520004
.520004
.530014
.550003
.550003
.540008
.520004
.550003
.550003
.560013
.550003
.590011
.580002
.570007
.560013
.560013
.550003
.570007
.570007
.550003
.550003
.570007
.570007
.540008
.550003
.740005
1.65
4.21001
8.62001
12.9
17.16
21.32
25.13
29.54
32.34
35.52
38.7
41.82
44.58
47.02
49.61
52.17
54.11
55.39
57.3
58.06
59.68
60.6
62.19
62.59
63.36
64.11
64.51
65.32
65.97
65.97
67.32
67.04
66.85
67.04
68.08
68.15
68.48
68.24
68.23
68.6
68.75
68.81
69.22
69.28
69.42
69.66
69.76
69.82
70.07
70.11
70.39
70.23
70.55
70.5
70.56
70.9
70.74
70.76
70.89
71.06
71.05
71.24
71.23
71.34
71.43
71.57
71.57
71.66
71.92
71.87
71.98
72.07
72
72.18
72.28
72.24
72.36
72.37
72.55
72.46
72.68
72.5
72.75
72.8
72.8
72.94
72.93
73.01
73.16
73.18
73.15
73.22
73.29
73.25
73.2
73.47
73.49
73.57
73.61
73.6
73.55
73.7
73.61
73.78
73.79
73.84
73.84
74.02
73.93
73.99
74.11
74.06
74.06
74.33
74.3
74.29
74.2
74.37
74.38
74.43
74.42
74.5
74.63
74.6
74.58
74.52
74.68
74.67
74.75
74.81
74.87
74.8
74.7
74.93
74.95
75.02
75.02
74.92
74.94
75.09
75.07
75.12
75.13
75.16
75.34
75.28
75.16
75.3
75.29
75.34
75.3
75.34
75.36
75.42
75.52
75.6
75.4
75.55
75.52
75.48
75.51
75.6
75.72
75.66
75.72
75.66
75.61
75.71
75.9
75.84
75.84
75.98
75.7
75.87
76.05
75.93
76.03
75.95
76
76.02
76.12
76.16
75.9
76.05
75.95
75.99
76.13
76.08
76.05
76.05
76.23
76.38
76.23
76.1
76.25
76.34
76.29
76.2
76.4
76.19
76.3
76.38
76.32
76.36
76.33
76.4
76.42
76.09
76.4
76.57
76.65
76.57
76.74
76.84
76.49
76.52
76.46
76.68
76.5
76.11
76.64
76.52
76.67
76.55
76.65
76.7
76.91
76.63
76.66
76.56
76.76
77
76.84
76.97
76.72
76.45
76.61
76.87
76.86
76.94
77.28
76.93
76.94
76.6
