301
200
800
3
128
2
1.00001
.910004
.830002
.86
.850006
.810013
.850006
.800003
.790008
.810013
.770004
.76001
.740005
.790008
.770004
.700012
.76001
.76001
.720001
.730011
.710007
.690002
.690002
.650009
.650009
.680008
.650009
.61
.62001
.61
.62001
.590011
.560013
.580002
.580002
.560013
.560013
.590011
.570007
.590011
.560013
.580002
.600006
.61
.630005
.600006
.61
.600006
.560013
.590011
.580002
.590011
.600006
.560013
.530014
.530014
.670013
1.34001
3.3
7.07001
10.89
14.72
18.7
22.65
26.85
30.33
33.86
36.45
39.74
43.58
45.83
48.2
50.55
52.91
54.56
55.92
57.86
58.74
59.95
60.98
62.23
62.92
63.59
63.83
64.42
65.36
65.85
65.84
66.16
66.6
67.07
67.13
67.36
67.2
68.19
68.71
68.35
68.3
68.6
68.68
68.86
69.06
69.07
69.12
69.41
69.47
69.72
69.92
70.05
70.07
69.94
70.27
70.16
70.36
70.29
70.5
70.55
70.65
70.81
70.8
70.98
70.94
71.22
71.24
71.39
71.3
71.5
71.56
71.58
71.46
71.71
71.9
71.89
72.08
72.08
72.16
72.11
72.17
72.2
72.21
72.33
72.56
72.58
72.55
72.45
72.63
72.8
72.6
72.78
72.77
72.81
72.86
73.05
72.98
73.04
73.21
73.17
73.29
73.26
73.28
73.31
73.4
73.42
73.52
73.57
73.64
73.65
73.57
73.71
73.77
73.79
73.8
73.84
73.83
73.92
73.94
73.98
74.04
74
74.06
74.02
74.11
74.17
74.2
74.23
74.18
74.3
74.33
74.36
74.39
74.51
74.45
74.46
74.44
74.45
74.5
74.51
74.61
74.56
74.59
74.79
74.68
74.84
74.89
74.77
74.86
74.79
74.97
74.79
74.94
75.04
74.97
74.98
75.09
74.93
75.21
75.09
75
75.01
75.05
75.11
75.07
75.22
75.13
75.21
75.14
75.29
75.37
75.21
75.35
75.23
75.37
75.39
75.35
75.25
75.35
75.31
75.48
75.57
75.52
75.2
75.31
75.46
75.38
75.57
75.7
75.59
75.63
75.5
75.77
75.66
75.73
75.73
75.64
75.6
75.7
75.56
75.54
75.6
75.77
75.8
75.86
75.72
75.71
75.74
75.82
75.63
75.9
75.92
75.76
75.82
75.85
76.08
75.78
75.85
76.09
75.86
75.9
75.75
75.95
75.94
75.9
76.18
76.21
75.88
75.72
75.93
75.7
76.02
76.06
76.04
76.29
76.13
76.17
75.84
76
76.13
76.27
76.08
76
75.83
