301
200
800
3
128
2
.840011
1.06001
.740005
.710007
.850006
.770004
.700012
.810013
.700012
.680008
.670013
.670013
.690002
.640015
.690002
.680008
.650009
.660004
.660004
.660004
.650009
.600006
.61
.62001
.600006
.590011
.600006
.570007
.580002
.560013
.560013
.530014
.520004
.520004
.520004
.51001
.520004
.530014
.550003
.51001
.51001
.540008
.560013
.540008
.550003
.540008
.530014
.540008
.550003
.570007
.540008
.560013
.570007
.970001
3.58
9.53002
18.3
27.78
36.53
43.35
46.88
50.64
52.34
54.81
56.8
58.18
59.73
60.22
62.27
63.59
64.25
64.86
65.71
66.38
66.89
67.45
68.43
68.46
69.53
69.09
69.99
70.33
70.17
70.26
70.78
71.16
71.06
70.94
71.28
71.56
71.61
72.04
72.47
72.07
72.94
73.17
72
72.25
72.62
72.46
72.78
72.79
72.86
72.95
73.05
73.04
73.23
73.4
73.22
73.49
73.48
73.69
73.73
73.66
73.55
73.74
73.79
73.87
74.06
74.19
73.95
74.29
74.18
74.1
74.39
74.52
74.27
74.51
74.59
74.57
74.46
74.59
74.75
74.84
74.71
74.73
74.82
74.92
74.88
75.01
75.08
74.97
75.1
75.04
75.33
75.28
75.27
75.24
75.52
75.42
75.52
75.43
75.45
75.51
75.54
75.59
75.67
75.64
75.68
75.69
75.53
75.7
75.8
75.77
75.85
75.87
75.81
75.82
75.9
75.9
76
75.92
75.99
75.96
76.06
76.2
76.04
76.12
76.31
76.24
76.11
76.25
76.23
76.33
76.3
76.24
76.4
76.23
76.3
76.44
76.47
76.4
76.31
76.42
76.4
76.54
76.57
76.56
76.58
76.56
76.49
76.65
76.6
76.57
76.71
76.65
76.64
76.73
76.66
76.69
76.68
76.88
76.76
76.72
76.86
76.96
76.73
76.83
76.73
76.88
76.93
76.89
76.86
77.04
77.05
76.89
76.97
77.14
77.03
77.06
77.2
77.02
77.02
76.99
77.11
77.2
77
76.92
77.26
77.1
76.9
77.14
77.25
77.01
77.05
77.19
77.13
77.23
77.32
77.35
77.23
77.29
77.18
77.22
77.41
77.29
77.31
77.22
77.18
77.52
77.27
77.48
77.23
77.29
77.51
77.48
77.62
77.54
77.28
77.48
77.44
77.37
77.59
77.4
77.55
77.62
77.64
77.64
77.57
77.37
77.75
77.8
77.65
77.66
77.63
77.68
77.31
77.48
77.35
77.57
77.58
77.69
77.81
77.79
77.48
77.67
77.72
77.91
77.89
77.44
77.8
