301
200
800
3
128
2
1.17001
1.13
1.06001
.990005
1.00001
.940002
.910004
.880005
.880005
.86
.880005
.820007
.850006
.840011
.790008
.840011
.820007
.770004
.770004
.76001
.730011
.740005
.750015
.740005
.700012
.690002
.690002
.680008
.670013
.630005
.630005
.600006
.570007
.590011
.590011
.590011
.61
.570007
.61
.590011
.630005
.640015
.630005
.600006
.660004
.62001
.62001
.630005
.640015
.600006
.600006
.640015
.61
.580002
.530014
.540008
.61
1.12001
2.65001
5.71001
8.96001
12.54
16.11
20.04
24.49
28.1
31.86
35.68
39.23
43.04
45.94
49.17
50.76
53.85
55.87
57.07
58.88
60.35
61.97
62.97
63.74
64.65
65.36
65.82
66.43
67.05
67.57
68
67.86
68.16
69.24
68.94
69.27
69.43
69.42
69.6
69.82
69.85
70.24
70.17
70.24
70.59
70.54
70.61
70.77
71
71.04
71.2
71.4
71.37
71.62
71.67
71.72
71.6
71.71
71.87
71.96
72.08
72.33
72.45
72.3
72.35
72.42
72.54
72.6
72.75
72.85
72.86
72.91
72.93
73
73.1
73.14
73.2
73.4
73.44
73.44
73.47
73.58
73.57
73.61
73.72
73.64
73.78
73.86
73.86
73.95
74.03
74.09
74.08
74.18
74.14
74.12
74.26
74.29
74.45
74.39
74.53
74.46
74.56
74.58
74.58
74.57
74.69
74.78
74.75
74.81
74.86
74.92
74.93
74.93
74.85
75.02
75.11
75.13
75.09
75.15
75.28
75.32
75.22
75.32
75.29
75.45
75.4
75.36
75.51
75.56
75.41
75.64
75.6
75.58
75.66
75.68
75.67
75.63
75.8
75.8
75.83
75.91
75.8
76.05
75.86
76.05
75.96
76.15
76.07
76.01
76.03
76.05
76.06
76.19
75.91
76.16
76.21
76.37
76.34
76.27
76.3
76.33
76.4
76.29
76.34
76.55
76.44
76.62
76.47
76.47
76.53
76.59
76.73
76.48
76.45
76.61
76.56
76.43
76.63
76.83
76.61
76.56
76.66
76.6
76.65
76.8
76.7
76.8
76.91
76.62
76.71
76.92
76.94
77.03
76.82
76.91
77.08
77.01
77.01
76.79
77.13
76.84
77.27
77.28
77.15
77.28
76.89
77.28
77.35
77
77.33
77.31
77.25
77.17
77.28
77.43
77.27
77.21
77.45
77.16
77.15
77.21
77.02
77.16
77.55
77.4
77.39
77.45
77.2
77.22
76.87
77.22
77.29
77.75
77.45
77.35
77.37
77.11
77.7
77.36
77.63
77.63
77.43
77.31
