301
200
800
3
128
2
.900009
.960007
.820007
1.02
.790008
.86
.850006
.840011
.710007
.670013
.700012
.680008
.770004
.690002
.700012
.710007
.680008
.710007
.690002
.660004
.630005
.650009
.630005
.62001
.590011
.62001
.580002
.590011
.590011
.570007
.520004
.560013
.530014
.540008
.51001
.550003
.540008
.550003
.560013
.540008
.540008
.570007
.550003
.550003
.570007
.550003
.550003
.540008
.540008
.530014
.560013
.560013
.560013
1.03001
3.53001
9.43001
18.23
27.57
35.93
43
46.62
50.09
52.54
54.59
57.02
58.33
59.99
60.98
62.62
63.77
64.95
65.6
66.31
67.11
68.15
68.51
69
69.29
70.12
69.48
70.39
70.97
71.17
70.83
71.21
71.48
71.7
71.41
71.91
72.09
72.82
72.01
72.66
72.38
73.16
72.98
72.85
72.78
73.06
72.91
72.9
73.16
73.16
73.15
73.47
73.55
73.45
73.73
73.88
73.62
73.59
73.95
73.79
73.92
74.01
73.93
73.97
74.04
74.21
74.39
74.14
74.45
74.42
74.6
74.5
74.45
74.54
74.76
74.61
74.72
74.8
74.84
74.8
74.99
75.05
75.06
74.96
75.07
75.15
75.06
75.03
75.18
75.34
75.24
75.42
75.4
75.34
75.44
75.41
75.41
75.55
75.55
75.52
75.69
75.75
75.75
75.62
75.71
75.76
75.82
75.84
75.73
75.79
75.91
76.01
75.88
75.94
75.94
76.11
75.92
76
75.93
75.96
76.1
76.18
76.15
76.13
76.17
76.34
76.29
76.1
76.21
76.35
76.22
76.36
76.36
76.39
76.32
76.38
76.37
76.5
76.47
76.38
76.51
76.4
76.47
76.52
76.5
76.61
76.51
76.69
76.55
76.69
76.57
76.67
76.7
76.73
76.66
76.67
76.81
76.69
76.91
76.84
76.81
76.9
76.93
76.72
76.77
76.93
76.89
77.19
76.85
76.91
77.05
76.99
76.75
76.85
77.14
77.02
77.08
77.07
76.9
76.88
77.11
76.95
77.09
77.06
76.93
77.12
77.01
76.86
77.03
77.26
76.94
77.11
77.05
77.48
77.21
77.21
77.2
77.28
77.28
77.25
77.14
77.25
77.12
77.43
77.32
77.09
77.43
77.35
77.33
77.33
77.4
77.53
77.63
77.43
77.57
77.37
77.33
77.47
77.41
77.7
77.41
77.54
77.56
77.41
77.42
77.54
77.3
77.39
77.67
77.67
77.54
77.61
77.53
77.38
77.28
77.45
77.47
77.67
77.68
77.7
77.56
77.46
77.5
77.63
77.9
77.81
77.49
77.32
