301
200
800
3
128
2
1.29
1.26001
1.09001
1.20001
1.08
1.02
1.02
1.03001
1.03001
.920013
.980011
.900009
.920013
.880005
.900009
.890015
.910004
.880005
.86
.800003
.790008
.770004
.820007
.76001
.710007
.730011
.740005
.710007
.690002
.690002
.670013
.630005
.650009
.630005
.600006
.630005
.630005
.650009
.650009
.650009
.630005
.630005
.670013
.670013
.640015
.670013
.680008
.640015
.650009
.640015
.660004
.640015
.61
.62001
.600006
.580002
.730011
1.41
3.46
7.24
11.1
15.09
19.04
23.09
27.64
31.2
34.5
38
41.47
45.19
47.59
50.26
52.51
54.98
57.41
59.28
60.62
61.43
62.8
63.72
65.25
65.25
66.35
67.38
67.02
67.98
68.2
69.01
69.43
69.82
69.72
70.02
70.22
70.72
70.12
69.81
70.75
70.88
71.27
71.29
71.64
71.63
71.7
71.8
71.76
71.77
71.96
72.28
72.36
72.27
72.56
72.49
72.64
73.03
72.94
72.92
73.11
72.91
73.34
73.08
73.19
73.38
73.34
73.47
73.57
73.63
73.59
73.88
73.8
73.99
74.01
74.09
74.05
74.12
74.27
74.2
74.33
74.46
74.42
74.61
74.61
74.68
74.7
74.72
74.78
74.67
74.72
74.97
74.89
75.03
75.06
75.03
75
75.04
75.13
75.13
75.21
75.27
75.26
75.31
75.31
75.49
75.47
75.46
75.65
75.6
75.62
75.51
75.65
75.69
75.73
75.74
75.79
75.97
75.88
75.88
76.06
75.97
76.06
75.95
76.11
76.13
76.21
76.2
76.15
76.13
76.25
76.15
76.22
76.24
76.34
76.34
76.5
76.4
76.53
76.5
76.59
76.51
76.55
76.63
76.69
76.56
76.7
76.68
76.76
76.72
76.68
76.79
76.91
76.67
76.8
76.76
76.93
76.86
76.85
76.95
77.01
76.85
76.96
77.07
77.22
77.18
77.2
77.02
77.13
77.06
77.23
77.05
77.18
77.2
77.15
77.08
77.11
77.24
77.17
77.25
77.09
77.29
77.33
77.31
77.4
77.35
77.43
77.44
77.48
77.47
77.6
77.39
77.44
77.47
77.55
77.6
77.56
77.67
77.76
77.51
77.56
77.53
77.74
77.6
77.72
77.66
77.69
77.7
77.45
77.53
77.77
77.49
77.63
77.64
77.82
77.62
77.83
77.76
77.76
77.5
78.03
77.98
77.83
77.73
77.67
78.25
77.97
77.86
77.92
77.94
77.97
77.74
77.94
78.03
77.97
77.88
77.93
78.13
78.11
77.71
78.03
78.05
78.11
78.21
78.36
