301
200
800
3
128
2
.840011
.920013
.960007
.87001
.87001
.840011
.750015
.750015
.800003
.770004
.750015
.780014
.700012
.710007
.730011
.710007
.710007
.710007
.690002
.670013
.680008
.650009
.650009
.640015
.630005
.62001
.61
.600006
.580002
.540008
.570007
.550003
.540008
.520004
.530014
.540008
.530014
.550003
.540008
.550003
.540008
.580002
.570007
.560013
.530014
.560013
.550003
.560013
.560013
.540008
.550003
.540008
.62001
1.04
3.8
9.87001
19.22
29.38
38.48
45.22
49.16
52.06
54.63
56.94
58.2
60.06
62.1
62.78
64.52
65.55
66.4
66.83
67.31
68.6
69.34
69.63
70.47
69.79
70.47
70.65
71.2
71.98
72.3
72.11
72.32
73.01
72.91
73.12
72.99
73.54
73.39
73.54
73.26
73.93
74.14
73.35
73.88
74.01
74.08
74.22
74.31
74.28
74.57
74.56
74.75
74.57
74.74
74.89
74.97
74.73
75.04
74.95
75.15
75.17
75.3
75.32
75.47
75.31
75.61
75.47
75.38
75.66
75.54
75.56
75.72
75.81
75.62
75.81
75.9
75.93
76
76.15
76.14
76.03
76.14
76.1
76.19
76.23
76.33
76.26
76.24
76.25
76.45
76.55
76.3
76.54
76.56
76.52
76.55
76.52
76.55
76.49
76.57
76.71
76.68
76.72
76.65
76.69
76.81
76.86
76.88
76.72
76.83
76.91
77.02
77.01
77
77
76.95
77.01
77.14
77.06
77.12
77.04
77.17
77.19
77.25
77.27
77.43
77.32
77.31
77.29
77.37
77.32
77.28
77.27
77.16
77.3
77.37
77.49
77.46
77.33
77.43
77.54
77.53
77.57
77.57
77.48
77.49
77.66
77.59
77.55
77.54
77.53
77.62
77.7
77.68
77.63
77.71
77.68
77.75
77.79
77.7
77.77
77.68
77.83
77.8
77.78
77.78
77.74
77.85
77.92
77.92
77.87
77.92
77.73
77.95
77.77
77.92
78.06
77.94
78.08
77.97
77.89
77.97
78.13
77.98
77.89
78.11
77.99
77.93
77.97
78.11
78.08
78.01
78.03
78.13
78.1
78.06
78.18
78.19
78.24
78.28
78.29
78.26
78.22
78.1
78.17
78.22
78.5
78.46
78.29
78.09
77.97
78.16
78.31
78.22
78.1
78.22
78.27
78.52
78.47
78.36
78.28
78.41
78.29
78.48
78.46
78.16
78.19
78.51
78.52
78.43
78.47
78.64
78.47
78.43
78.15
78.47
78.28
78.47
78.55
78.5
78.56
78.42
78.71
78.59
78.47
78.48
78.53
78.63
