301
200
800
3
128
2
1.21
.950012
.970001
1.12001
.920013
1.00001
.820007
.920013
.960007
1.02
.86
.87001
.920013
.840011
.800003
.86
.830002
.820007
.820007
.780014
.790008
.76001
.770004
.730011
.700012
.710007
.730011
.700012
.670013
.650009
.61
.630005
.61
.630005
.62001
.61
.600006
.630005
.650009
.61
.640015
.660004
.660004
.660004
.660004
.660004
.670013
.660004
.640015
.640015
.630005
.650009
.630005
.630005
.600006
.61
.86
2.01001
5.05
10.54
15.76
20.38
24.94
28.85
32.95
35.66
38.69
41.22
44.23
46.94
49.16
51.48
53.06
55.29
57.51
58.39
59.83
61.38
62.3
63
63.76
64.56
65.53
66.9
66.82
67.14
67.85
68.1
68.84
68.8
68.75
69.55
69.65
69.56
69.94
70.27
69.93
70.31
70.47
70.56
70.69
70.9
71.06
71.09
71.11
71.2
71.47
71.5
71.81
71.56
71.92
71.87
72.03
72.18
72.11
72.32
72.39
72.34
72.83
72.63
72.72
72.69
72.89
72.88
73.05
73.18
73.16
73.21
73.43
73.31
73.47
73.61
73.44
73.7
73.73
73.79
73.74
73.95
74.05
74.07
74.05
74.21
74.21
74.25
74.12
74.33
74.31
74.47
74.46
74.47
74.5
74.51
74.54
74.69
74.68
74.74
74.92
74.8
74.82
75.01
75.02
75.12
75
75.13
75.2
75.22
75.13
75.27
75.3
75.2
75.33
75.31
75.39
75.49
75.53
75.46
75.44
75.56
75.62
75.49
75.75
75.72
75.72
75.75
75.78
75.83
75.83
75.87
75.89
75.95
76.06
76.05
76.05
76.1
76.15
76.14
76.15
76.1
76.11
76.09
76.24
76.22
76.26
76.18
76.38
76.38
76.41
76.36
76.48
76.26
76.5
76.49
76.57
76.52
76.52
76.57
76.58
76.52
76.65
76.68
76.72
76.7
76.78
76.8
76.71
76.8
76.88
76.62
76.78
76.89
76.86
76.68
76.92
76.79
76.78
76.97
76.67
77
76.88
77.08
77.03
76.96
77.07
76.96
77.03
77
77.09
76.97
77.28
76.98
77.02
77.09
77.37
77.31
77.32
77.24
77.09
76.96
77.32
77.42
77.28
77.46
77.32
77.43
77.28
77.35
77.15
77.42
77.69
77.34
77.46
77.47
77.54
77.46
77.54
77.57
77.61
77.75
77.76
77.43
77.37
77.9
77.66
77.64
77.48
77.7
77.29
77.43
77.63
77.62
77.54
77.49
77.64
77.93
77.72
77.83
77.78
77.92
77.77
77.62
77.96
