301
200
800
3
128
2
.770004
.820007
.830002
.810013
.720001
.730011
.840011
.730011
.780014
.790008
.730011
.720001
.680008
.680008
.660004
.720001
.710007
.720001
.680008
.690002
.640015
.670013
.630005
.640015
.62001
.61
.61
.630005
.600006
.580002
.580002
.580002
.560013
.540008
.540008
.580002
.570007
.550003
.570007
.590011
.570007
.600006
.580002
.580002
.570007
.600006
.600006
.590011
.600006
.61
.580002
.590011
.600006
1.14001
4.05
10.58
19.83
29.93
38.4
45.21
48.56
51.26
53.38
55.25
57.21
58.53
59.96
60.77
61.71
62.92
63.91
64.61
65.52
66.09
67.18
66.72
67.76
67.92
68.74
69.09
69.25
69.74
69.98
70.21
70.07
70.89
70.98
71.22
70.89
71.36
71.57
71.49
71.86
72.15
72.08
71.64
72.43
72.46
72.34
72.48
72.73
72.64
72.71
72.85
72.94
73.1
73.35
73.28
73.31
73.33
73.61
73.44
73.61
73.62
73.59
73.84
73.88
73.95
73.87
74.11
73.96
74.38
74.31
74.26
74.28
74.25
74.35
74.29
74.47
74.58
74.61
74.67
74.68
74.81
74.77
74.92
74.83
74.95
75.17
74.94
75.07
75.1
75.26
75.21
75.24
75.31
75.47
75.41
75.43
75.48
75.53
75.67
75.54
75.53
75.61
75.61
75.7
75.79
75.78
75.65
75.75
75.87
75.8
75.87
75.83
75.89
75.89
76
76.06
76.06
76.13
76.19
76.26
76.22
76.15
76.27
76.19
76.21
76.34
76.39
76.48
76.38
76.34
76.45
76.41
76.49
76.44
76.5
76.56
76.48
76.66
76.51
76.55
76.49
76.68
76.62
76.65
76.73
76.59
76.8
76.74
76.73
76.79
76.78
76.82
76.89
77
76.91
76.97
76.89
76.97
76.98
77.07
76.99
77.05
77.07
76.84
76.96
77.1
77.13
77.07
77.13
77.12
77.25
77.25
77.26
77.27
77.27
77.14
77.23
77.12
77.08
77.28
77.48
77.41
77.38
77.37
77.26
77.38
77.47
77.54
77.38
77.56
77.44
77.34
77.51
77.53
77.5
77.47
77.6
77.61
77.8
77.51
77.44
77.62
77.71
77.42
77.49
77.49
77.8
77.56
77.73
77.76
77.7
77.55
77.77
77.76
77.72
77.71
77.67
77.68
77.92
77.84
77.87
77.66
77.88
77.73
77.78
77.85
77.86
77.71
77.88
77.74
77.88
77.8
77.81
77.95
77.61
77.87
77.76
77.77
77.93
77.78
77.88
78
77.84
78.13
78.24
77.88
77.85
78.24
