301
200
800
3
128
2
1.28001
1.21
1.25001
1.14001
1.08
1.1
1.1
1.05
1.00001
1.03001
.990005
.940002
.920013
.950012
.940002
.890015
.930008
.930008
.910004
.890015
.830002
.840011
.830002
.820007
.750015
.810013
.750015
.740005
.730011
.710007
.660004
.690002
.660004
.640015
.640015
.640015
.660004
.700012
.680008
.680008
.690002
.680008
.700012
.710007
.720001
.720001
.730011
.690002
.710007
.710007
.700012
.660004
.690002
.670013
.660004
.640015
.86
2.01001
5.19
11.05
16.14
21.11
25.33
29.84
33.31
36.01
39.21
41.79
44.55
46.77
49.32
51.88
53.44
55.38
56.65
58.78
59.65
60.33
61.75
63.05
63.65
64.57
65.14
65.46
66.41
66.85
67.67
67.89
67.62
68.24
68.2
68.39
68.9
70.07
69.33
68.86
69.41
69.44
69.49
69.94
70.17
70.23
70.43
70.64
70.57
70.67
70.88
70.98
71.14
71.22
71.35
71.35
71.39
71.59
71.54
71.62
71.59
71.72
71.89
72.13
72.03
72.24
72.2
72.27
72.35
72.32
72.51
72.63
72.59
72.64
72.83
72.72
72.83
72.7
73.03
73.04
73.01
73.19
73.15
73.15
73.08
73.4
73.5
73.52
73.53
73.47
73.48
73.55
73.62
73.75
73.65
73.89
73.81
73.85
73.85
73.81
73.97
73.94
74.02
73.94
74.07
74.08
74.1
74.24
74.22
74.21
74.29
74.42
74.42
74.38
74.43
74.32
74.44
74.59
74.55
74.64
74.62
74.55
74.7
74.74
74.63
74.75
74.79
74.92
74.97
74.87
74.88
74.97
75.03
74.99
75.03
75.08
75.02
75.01
75.19
75.13
75.15
75.24
75.21
75.13
75.13
75.22
75.42
75.34
75.25
75.3
75.3
75.32
75.28
75.43
75.34
75.34
75.34
75.41
75.43
75.48
75.47
75.56
75.6
75.68
75.55
75.72
75.58
75.64
75.51
75.77
75.68
75.78
75.5
75.75
75.78
75.71
75.68
75.78
75.86
75.74
75.86
75.76
75.85
75.97
75.9
75.75
76
75.83
75.89
75.9
75.89
75.89
75.98
75.87
76.04
76.29
75.98
76.09
75.78
76.03
76.1
76.04
75.92
76.24
76.12
76.07
76.34
76.29
76.29
76.17
76.28
76.22
76.14
76.44
76.21
76.4
76.37
76.31
76.3
76.45
76.45
76.44
76.33
76.19
76.37
76.69
76.48
76.5
76.34
76.47
76.34
76.3
76.29
76.52
76.31
76.4
76.18
76.29
76.33
76.25
76.49
76.54
76.57
76.78
76.64
