301
200
800
3
128
2
.990005
.580002
.660004
.980011
.720001
.830002
.720001
.800003
.800003
.770004
.800003
.750015
.710007
.700012
.730011
.710007
.710007
.670013
.700012
.700012
.710007
.62001
.630005
.640015
.630005
.62001
.62001
.62001
.590011
.570007
.550003
.560013
.550003
.550003
.540008
.570007
.540008
.560013
.560013
.570007
.570007
.570007
.560013
.590011
.61
.570007
.570007
.560013
.560013
.590011
.590011
.550003
.61
1.06001
4.11
10.91
20.72
31.53
40.95
48.11
51.91
54.79
56.81
58.93
59.83
61.62
62.7
62.97
64.18
65.21
65.84
66.51
67.26
67.94
68.8
68.96
69.38
69.92
70.77
70.95
70.78
71.15
70.91
71.55
71.95
72.24
71.8
72.72
72.33
73.05
72.56
73.2
73.43
73.54
73.27
72.59
73.25
73.6
73.53
73.79
73.61
73.79
74.16
74
74.07
74.12
74.23
74.24
74.38
74.28
74.58
74.58
74.58
74.8
74.63
74.85
74.86
74.85
75.06
75.08
74.96
75.03
75.09
75.34
75.21
75.27
75.24
75.5
75.46
75.53
75.54
75.57
75.53
75.65
75.64
75.76
75.76
75.76
75.92
75.92
75.84
76.05
75.97
76.12
76.07
75.96
76.07
76.34
76.19
76.21
76.19
76.27
76.35
76.27
76.24
76.41
76.39
76.48
76.38
76.51
76.57
76.44
76.54
76.63
76.65
76.72
76.64
76.77
76.66
76.71
76.87
76.78
76.84
76.87
76.91
76.83
76.97
76.94
77.06
76.88
77.01
77.05
77.03
76.96
76.99
77.03
77.11
77.05
77.14
77.08
77.17
77.16
77.24
77.24
77.21
77.21
77.34
77.15
77.17
77.45
77.3
77.35
77.32
77.29
77.42
77.41
77.52
77.46
77.45
77.35
77.51
77.54
77.62
77.62
77.52
77.43
77.57
77.52
77.45
77.48
77.58
77.65
77.64
77.74
77.61
77.6
77.75
77.8
77.68
77.86
77.69
77.64
77.97
77.76
77.82
77.84
77.7
77.85
77.81
77.9
77.82
77.82
77.82
77.95
77.83
78.05
78.05
78.01
77.95
77.77
77.88
78.02
78.13
78.09
78
78.15
78.05
78.02
78.15
78.17
78.25
78.14
78.09
78.01
77.95
77.93
78.04
78.17
78.24
78.17
78
78.14
78.32
78.04
77.94
78.23
78.14
78.41
78.2
78.29
78.15
78.55
78.38
78.16
78.36
78.01
78.18
77.86
78.17
78.2
78.43
78.36
78.69
78.57
78.65
78.2
78.15
78.67
78.48
78.42
78.46
