301
200
800
3
128
2
.850006
.740005
.780014
.900009
.770004
.890015
.86
.810013
.830002
.750015
.780014
.720001
.76001
.76001
.800003
.770004
.780014
.750015
.710007
.740005
.700012
.720001
.670013
.660004
.630005
.670013
.670013
.660004
.650009
.590011
.580002
.600006
.570007
.580002
.590011
.580002
.580002
.590011
.590011
.570007
.570007
.580002
.590011
.630005
.590011
.590011
.580002
.600006
.590011
.590011
.590011
.590011
.600006
1.1
4.18001
11.16
21.19
32.07
41.3
48.49
52.1
54.85
57
58.86
59.84
60.89
62.85
63.35
63.89
65.61
65.86
67.65
67.83
68.15
67.98
68.93
69.35
69.63
69.69
70.16
70.52
71.07
71.01
71.62
71.42
72.13
72.2
72.13
71.8
72.53
72.84
72.92
72.89
73.35
73.16
72.6
73.32
73.24
73.09
73.66
73.68
73.62
73.8
73.81
73.93
74
74.22
74.21
74.21
74.31
74.31
74.51
74.5
74.58
74.57
74.76
74.75
74.55
74.78
74.96
74.93
75.15
75.17
75.18
75.09
75.16
75.27
75.14
75.21
75.24
75.28
75.39
75.38
75.32
75.58
75.54
75.57
75.69
75.81
75.55
75.71
75.79
75.98
75.87
75.94
75.83
75.91
75.9
75.97
76.04
76.11
76.12
76.1
76.03
76.07
76.22
76.26
76.24
76.41
76.33
76.35
76.28
76.26
76.41
76.33
76.42
76.47
76.56
76.48
76.52
76.63
76.54
76.67
76.87
76.68
76.76
76.67
76.64
76.82
76.73
76.72
76.76
76.82
76.95
76.9
76.91
76.85
76.91
76.97
76.9
76.95
77.04
77.05
77.1
77.1
76.98
77.1
77.13
76.99
77.26
77.2
77.19
77.17
77.21
77.14
77.1
77.11
77.32
77.23
77.35
77.18
77.22
77.39
77.36
77.34
77.4
77.3
77.38
77.43
77.44
77.59
77.49
77.45
77.58
77.57
77.61
77.53
77.67
77.51
77.48
77.62
77.55
77.5
77.48
77.71
77.7
77.63
77.65
77.69
77.71
77.79
77.73
77.75
77.67
77.68
77.62
77.84
77.76
77.7
77.8
77.77
77.94
77.7
77.94
77.89
77.92
77.81
77.59
77.73
77.89
77.61
77.77
78.07
78.05
78.03
77.68
77.94
78.19
77.81
77.82
77.88
77.98
78.23
78
77.87
78.07
78.1
77.95
77.99
77.73
77.94
78.05
77.88
78.07
78.11
77.88
78.15
78.08
78.07
77.83
77.93
78.3
77.72
78.03
78.32
77.88
78.24
78.23
78.19
78.75
78.1
