301
200
800
3
128
2
1.06001
1.29
1.36
1.14001
1.09001
1.04
.890015
1.01001
.970001
.970001
.930008
.920013
.880005
.86
.910004
.900009
.86
.86
.87001
.820007
.830002
.780014
.780014
.790008
.780014
.710007
.750015
.740005
.680008
.660004
.670013
.640015
.640015
.630005
.62001
.640015
.62001
.61
.650009
.660004
.650009
.660004
.670013
.640015
.690002
.670013
.630005
.670013
.660004
.640015
.62001
.650009
.630005
.600006
.62001
.630005
.810013
1.81001
4.68001
9.68001
14.72
19.69
24.29
28.75
32.67
36.42
39.56
42.61
45.92
48.77
51.25
53.85
55.84
58.54
60.23
61.2
63.14
64.07
65.09
66.3
66.91
67.67
68.4
69.3
69.22
70.64
70.6
70.88
71.33
71.49
71.5
71.77
72.42
72.42
72.98
72.25
72.62
72.57
72.71
73.05
73.21
73.1
73.43
73.4
73.34
73.43
73.74
73.63
73.81
73.93
73.99
73.88
74.09
74.39
74.27
74.25
74.38
74.33
74.61
74.47
74.51
74.77
74.76
74.93
75.01
75.06
74.98
75.26
75.19
75.29
75.39
75.35
75.36
75.41
75.41
75.61
75.58
75.63
75.65
75.73
75.79
75.8
75.8
75.83
75.89
75.92
76.02
75.95
76.04
76.09
76.1
76.16
76.07
76.15
76.14
76.21
76.35
76.32
76.37
76.42
76.56
76.51
76.53
76.59
76.76
76.69
76.65
76.61
76.79
76.71
76.78
76.73
76.83
76.95
76.98
76.88
77.05
76.97
77.01
77.05
77.06
77.06
77.17
77.08
77.01
77.16
77.26
77.22
77.27
77.33
77.32
77.25
77.46
77.41
77.48
77.51
77.48
77.46
77.44
77.62
77.5
77.47
77.57
77.66
77.74
77.72
77.72
77.66
77.73
77.51
77.83
77.77
77.65
77.66
77.63
77.87
78
77.75
77.82
77.92
78.04
77.91
77.8
78
77.83
78.03
78.09
77.87
78.05
77.87
77.97
78.05
78.04
78.07
78.21
78.35
77.99
78.1
78.07
78.23
78.13
78.21
78.17
78.06
78.17
78.17
78.39
78.37
78.37
78.32
78.34
78.48
78.36
78.28
78.5
78.36
78.3
78.3
78.47
78.43
78.53
78.45
78.59
78.35
78.68
78.59
78.44
78.36
78.78
78.59
78.52
78.6
78.84
78.77
78.54
78.47
78.6
78.58
78.61
78.39
78.38
78.8
78.6
78.97
78.75
78.61
78.75
78.4
78.99
78.87
78.65
78.69
78.74
79.01
79.13
78.7
78.93
78.74
78.79
79.12
79.23
