301
200
800
3
128
2
.990005
.930008
.850006
.680008
.790008
.800003
.86
.730011
.790008
.720001
.76001
.76001
.720001
.730011
.710007
.76001
.700012
.680008
.700012
.690002
.660004
.690002
.650009
.660004
.630005
.630005
.650009
.61
.590011
.580002
.590011
.590011
.590011
.61
.570007
.570007
.580002
.600006
.61
.590011
.580002
.590011
.590011
.590011
.62001
.590011
.61
.61
.580002
.600006
.61
.600006
.61
1.08
3.91
10.17
19.32
29.22
38.06
44.4
48.28
51.35
53.4
55.3
57.11
58.32
60.14
60.8
62.34
63.32
64.11
65.55
66.22
66.3
66.93
68.04
68.17
68.21
68.67
68.68
69.82
69.97
70.6
70.5
70.71
71.17
71.48
71.75
71.95
71.7
71.82
71.89
72.56
72.27
73.04
72.99
72.64
72.76
72.88
72.96
73.04
73.2
73.17
73.38
73.33
73.52
73.75
73.44
73.68
73.75
73.91
74.12
73.92
73.99
74.08
74.06
74.32
74.33
74.34
74.61
74.42
74.62
74.65
74.66
74.66
74.65
74.95
74.93
74.94
75.01
74.91
75.05
75.1
75.14
75.34
75.14
75.2
75.31
75.32
75.26
75.36
75.5
75.61
75.51
75.66
75.59
75.68
75.68
75.68
75.77
75.71
75.88
75.76
75.84
75.97
75.86
75.99
75.92
76.13
75.95
76.04
76.15
76.06
76.12
76.08
76.19
76.31
76.25
76.35
76.33
76.42
76.25
76.39
76.54
76.48
76.49
76.49
76.5
76.63
76.61
76.48
76.64
76.58
76.66
76.64
76.7
76.63
76.74
76.73
76.68
76.81
76.9
76.92
76.82
76.87
76.87
76.98
76.93
76.87
76.88
76.79
76.87
77.14
77
76.93
77.07
77.03
77.15
76.97
77.13
77.1
77.23
77.21
77.27
77.08
77.16
77.1
77.22
77.22
77.3
77.33
77.29
77.33
77.28
77.43
77.27
77.44
77.59
77.3
77.38
77.38
77.49
77.38
77.41
77.53
77.51
77.39
77.39
77.4
77.51
77.55
77.5
77.73
77.56
77.57
77.61
77.74
77.59
77.75
77.53
77.86
77.79
77.72
77.81
77.69
77.7
77.55
77.62
77.6
77.8
77.73
77.75
77.77
77.9
77.79
77.73
77.71
77.91
77.76
77.98
77.84
78.08
78.25
77.94
77.91
77.72
77.9
77.82
77.94
77.69
77.91
78.05
78.01
78.22
77.95
77.97
77.99
78.01
78.04
78.02
77.85
77.91
77.94
78.07
78.01
77.79
78.26
78.15
77.97
78.43
78.14
