301
200
800
3
128
2
.810013
.740005
.660004
.700012
.800003
.680008
.730011
.710007
.750015
.720001
.700012
.680008
.690002
.670013
.690002
.670013
.670013
.670013
.690002
.660004
.650009
.630005
.61
.640015
.600006
.640015
.580002
.590011
.580002
.560013
.550003
.550003
.560013
.550003
.520004
.530014
.560013
.560013
.560013
.570007
.550003
.540008
.560013
.560013
.550003
.570007
.570007
.560013
.560013
.560013
.550003
.580002
.570007
1.08
3.81001
9.92002
19.19
29.12
38.35
44.62
48.04
51.16
53.51
55.56
56.87
58.57
60.33
61.39
61.81
63.61
64.26
65.23
66.27
67.07
67.66
68.25
68.61
68
69.53
69.65
69.76
70.45
70.31
70.63
71.2
71.32
71.12
71.6
71.81
72.14
72.49
72.52
72.54
72.56
72.46
72.67
72.98
72.93
72.84
73.15
72.96
73.23
73.44
73.41
73.5
73.52
73.67
73.98
73.99
73.85
74.13
74
74.21
74.29
74.12
74.4
74.4
74.47
74.62
74.6
74.72
74.67
74.7
74.85
74.88
74.86
74.76
75
74.99
75.06
75.1
75.32
75.19
75.21
75.3
75.33
75.37
75.28
75.49
75.61
75.48
75.68
75.61
75.78
75.6
75.58
75.63
75.88
75.84
75.8
75.76
75.82
75.98
76.08
75.93
75.93
76.1
76.04
76.08
76.17
76.27
76.21
76.19
76.25
76.45
76.31
76.3
76.3
76.39
76.39
76.42
76.4
76.47
76.59
76.61
76.62
76.5
76.55
76.63
76.57
76.74
76.65
76.67
76.74
76.8
76.77
76.75
76.83
76.72
76.9
76.98
76.92
76.96
77.01
77.05
76.93
77.04
76.95
77.03
76.98
77.08
76.99
77.19
77.01
77.18
77.24
77.23
77.23
77.2
77.24
77.13
77.32
77.34
77.26
77.2
77.32
77.39
77.17
77.3
77.17
77.52
77.35
77.5
77.38
77.4
77.49
77.47
77.31
77.63
77.5
77.53
77.46
77.52
77.59
77.49
77.6
77.53
77.7
77.7
77.51
77.61
77.69
77.75
77.71
77.57
77.44
77.82
77.76
77.75
77.62
77.68
77.78
77.94
78.14
77.79
77.8
77.73
77.7
77.67
77.94
77.96
77.65
77.92
77.73
77.8
77.98
77.87
77.79
77.8
77.99
77.86
77.85
77.94
78.14
77.79
77.9
78.36
78.25
78.09
77.91
77.83
78.01
78.08
78.2
78.2
78.16
78.04
78.3
77.96
78.15
78.06
78.08
77.91
78.41
78.12
78.14
78.4
78.28
78.04
78.13
78.45
