301
200
800
3
128
2
1.82
1.62001
.160003
.600006
.630005
1.12001
1.24
.910004
1.62001
.910004
1.13
1.22
1.19
1.06001
.960007
1.22
.820007
.970001
.690002
.900009
.780014
.780014
.710007
.820007
.940002
.750015
.590011
.780014
.740005
.730011
.680008
.670013
.650009
.530014
.630005
.580002
.710007
.61
.690002
.680008
.750015
.630005
.730011
.640015
.730011
.580002
.690002
.630005
.590011
.470001
.62001
.730011
.650009
.550003
.61
.470001
.940002
1.66
4.19
8.77001
13.4
17.83
22.25
25.87
30.07
33.75
36.95
39.79
42.76
45.56
48.52
51.14
52.98
55.24
57.17
58.32
59.75
61.43
62.1
63.38
64.78
65.48
65.67
66.33
66.56
67.49
67.57
68.14
68.66
68.92
69.1
69.88
69.45
69.32
69.99
69.73
70.15
70.53
70.43
70.98
70.76
70.99
71.15
71.24
71.25
71.3
71.56
71.58
71.95
71.81
72
71.85
71.99
72.26
72.23
72.37
72.65
72.49
72.86
72.62
72.93
72.91
73
73.19
73.08
73.32
73.31
73.49
73.33
73.46
73.62
73.68
73.62
73.7
73.92
73.96
73.92
74.18
74.06
74.17
74.08
74.22
74.3
74.36
74.3
74.33
74.49
74.59
74.62
74.57
74.65
74.78
74.78
74.68
74.69
74.75
74.93
74.98
74.96
75.18
75.12
75.13
75.18
75.41
75.36
75.35
75.43
75.4
75.39
75.45
75.43
75.5
75.46
75.69
75.55
75.64
75.7
75.73
75.79
75.73
75.89
75.95
76.04
75.89
75.94
75.99
75.96
76.01
75.98
76.15
76.23
76.21
76.34
76.23
76.29
76.33
76.38
76.33
76.42
76.38
76.55
76.54
76.4
76.54
76.49
76.49
76.64
76.5
76.79
76.63
76.8
76.59
76.65
76.69
76.66
76.85
76.89
76.83
76.79
76.85
76.9
77.01
77.03
77
77.04
77.09
77.06
76.9
76.9
76.96
76.97
77.04
77.02
77.11
77.19
77.29
77.11
77.19
77.24
77.29
77.28
77.14
77.32
77.18
77.4
77.34
77.49
77.41
77.41
77.59
77.39
77.42
77.39
77.51
77.5
77.69
77.39
77.42
77.7
77.53
77.54
77.45
77.64
77.67
77.47
77.38
77.56
77.65
77.5
77.75
77.56
77.89
77.89
77.79
77.56
77.54
77.87
77.81
77.77
77.74
77.65
77.92
77.66
78.02
78.04
77.84
78
77.95
77.91
77.86
77.95
77.82
77.93
78.18
78.1
78
78.06
78.01
78.09
77.98
77.71
