301
200
800
3
128
2
.180008
1.03001
2.58
1.47
1.46
1.47
1.87001
.720001
.730011
.990005
.630005
.950012
.590011
.840011
.690002
.780014
.660004
.580002
.540008
.660004
.680008
.730011
.680008
.630005
.530014
.570007
.680008
.630005
.560013
.600006
.580002
.550003
.520004
.630005
.470001
.570007
.440002
.51001
.62001
.560013
.61
.600006
.560013
.550003
.600006
.560013
.660004
.440002
.61
.520004
.600006
.630005
.670013
1.19
3.78001
9.85001
19.25
29.42
38.12
45.19
48.69
51.53
53.84
55.88
57.61
59.26
60.54
61.39
63.08
63.84
64.89
66.21
66.64
66.95
67.96
68.34
68.88
69.32
69.88
69.98
70.56
70.8
70.41
71.32
71.18
72.28
71.75
72.38
72.21
72.33
72.29
72.76
73.03
72.85
72.63
73.22
72.85
73.16
73.2
73.33
73.47
73.36
73.56
73.6
73.78
73.58
73.84
73.88
74.04
73.87
74.25
74.01
74.38
74.27
74.28
74.46
74.48
74.56
74.89
74.71
74.79
74.65
74.74
74.96
74.92
75.04
74.97
75.07
75.07
75.16
75.23
75.29
75.17
75.37
75.47
75.44
75.56
75.54
75.56
75.69
75.7
75.65
75.82
75.78
75.71
75.7
75.88
75.9
75.96
75.92
75.97
76.1
75.9
76.13
76
76.16
76.14
76.14
76.22
76.21
76.34
76.26
76.25
76.2
76.54
76.3
76.43
76.45
76.53
76.44
76.5
76.53
76.6
76.54
76.72
76.75
76.69
76.67
76.82
76.76
76.84
76.72
76.84
76.83
76.73
76.83
76.78
77
76.86
76.93
77.06
76.93
77.04
76.98
77.09
77.1
77.03
77.04
77.09
77.04
77.07
77.04
77.21
77.25
77.27
77.22
77.35
77.2
77.25
77.21
77.15
77.27
77.49
77.38
77.25
77.3
77.52
77.45
77.38
77.4
77.46
77.46
77.64
77.38
77.45
77.55
77.63
77.58
77.58
77.48
77.55
77.47
77.4
77.76
77.65
77.59
77.36
77.6
77.72
77.58
77.73
77.68
77.83
77.64
77.84
77.89
78.01
77.7
77.82
77.82
77.81
77.73
77.87
77.88
78.02
77.85
77.69
77.8
77.78
78.16
77.94
78.08
77.96
77.7
77.62
77.75
77.76
78.05
77.81
78.05
77.92
78.09
77.96
77.9
78.21
78.09
78.15
78.11
78.13
78.05
78.1
78.14
78.02
78.08
78.36
78.36
78.27
78.08
78.08
78.02
78.36
77.96
77.94
78.5
78.37
78.27
78.22
78.4
78.42
78.31
78.51
