301
200
800
3
128
2
1.1
1.04
.940002
.960007
1.07
.950012
.920013
.900009
.86
.850006
.86
.830002
.820007
.820007
.770004
.780014
.810013
.800003
.770004
.790008
.780014
.740005
.740005
.750015
.690002
.700012
.710007
.680008
.660004
.660004
.640015
.630005
.61
.570007
.600006
.62001
.61
.61
.600006
.630005
.650009
.640015
.680008
.650009
.660004
.650009
.670013
.660004
.650009
.630005
.650009
.650009
.640015
.600006
.600006
.640015
.940002
2.6
7.1
14.65
21.67
27.44
32.56
36.66
40.61
43.24
46.32
48.36
50.89
52.98
54.74
56.74
58.55
59.53
61.26
62.23
63.82
64.5
65.35
66.47
66.9
67.54
67.96
68.73
69.46
69.87
70.17
70.59
70.82
70.78
71.2
71.38
71.91
72.12
71.48
72.35
71.92
72.3
72.33
72.4
72.61
72.84
72.87
73.11
72.94
73
73.1
73.43
73.41
73.4
73.71
73.56
73.78
73.92
73.86
73.99
74.11
74.02
74.14
74.26
74.18
74.26
74.4
74.32
74.6
74.56
74.66
74.94
74.91
74.91
75.04
75.09
74.91
75.11
75.06
75.23
75.35
75.36
75.35
75.3
75.42
75.38
75.67
75.55
75.58
75.58
75.64
75.74
75.8
75.78
75.78
75.78
75.96
75.94
75.89
75.94
76.05
76.23
76.12
76.16
76.18
76.27
76.37
76.28
76.44
76.38
76.49
76.43
76.34
76.36
76.53
76.5
76.56
76.67
76.84
76.67
76.76
76.72
76.84
76.77
76.85
76.86
76.83
76.93
76.92
76.94
77.01
77.05
76.97
77.21
77.14
77.11
77.23
77.24
77.24
77.3
77.15
77.18
77.34
77.24
77.31
77.41
77.45
77.21
77.39
77.39
77.49
77.52
77.54
77.52
77.49
77.5
77.57
77.52
77.58
77.7
77.63
77.7
77.69
77.72
77.75
77.87
77.9
77.7
77.67
77.81
77.87
77.82
77.74
77.83
77.86
77.72
77.92
77.75
77.91
78.01
77.82
78.04
77.91
77.96
77.98
78.02
78.01
77.95
78.18
77.94
78.25
78.04
78.18
78.11
77.92
78.21
78.14
78.43
78.34
78.14
78.09
78.32
78.33
78.19
78.27
78.35
78.1
78.3
78.1
78.31
78.34
78.52
78.16
78.21
78.3
78.38
78.38
78.39
78.44
78.42
78.6
78.51
78.44
78.47
78.51
78.53
78.37
78.58
78.44
78.46
78.44
78.12
78.55
78.54
78.48
78.35
78.56
78.72
78.38
78.7
78.5
78.49
78.6
78.67
78.76
