301
200
800
3
128
2
1.14001
1.06001
1.08
.990005
.990005
.980011
1.06001
1.04
.940002
.900009
.910004
.900009
.850006
.900009
.87001
.810013
.87001
.830002
.830002
.820007
.810013
.800003
.790008
.780014
.770004
.740005
.740005
.730011
.720001
.670013
.670013
.670013
.650009
.640015
.660004
.650009
.650009
.690002
.670013
.680008
.670013
.710007
.710007
.720001
.680008
.690002
.720001
.700012
.690002
.690002
.680008
.650009
.680008
.650009
.640015
.680008
1.08
2.91
7.73001
15.38
22.18
28.11
33.14
37.25
40.89
43.34
46.34
48.4
50.76
53.09
54.79
57.23
58.28
60.34
61.42
62.28
63.87
64.68
65.73
66.39
67.21
68.03
68.33
68.97
69.24
70.01
70.3
70.67
70.92
71.34
71.27
71.6
71.76
72.29
71.68
72.1
72.31
72.22
72.2
72.5
72.65
72.73
72.87
72.98
72.98
73.09
73.27
73.47
73.38
73.44
73.58
73.82
73.81
73.77
73.74
74
74.1
74.15
74.05
74.19
74.3
74.48
74.43
74.61
74.52
74.44
74.59
74.68
74.73
74.85
74.68
74.79
75.04
75.07
75.16
75.14
75.09
75.25
75.41
75.23
75.32
75.38
75.48
75.54
75.43
75.54
75.56
75.69
75.56
75.77
75.86
75.91
75.82
75.89
76.05
75.84
75.94
76
76.02
76.1
76.09
76.14
76.15
76.2
76.21
76.18
76.23
76.38
76.32
76.37
76.42
76.41
76.46
76.67
76.59
76.63
76.7
76.66
76.79
76.76
76.76
76.79
76.73
76.85
76.88
76.89
76.85
76.92
76.83
76.91
76.89
77.08
77.03
77.03
77.06
76.96
77.14
77.02
77.05
77.11
77.1
77.13
77.16
77.32
77.2
77.4
77.29
77.35
77.33
77.44
77.43
77.32
77.4
77.42
77.47
77.45
77.46
77.64
77.47
77.63
77.67
77.5
77.59
77.76
77.62
77.66
77.56
77.79
77.72
77.76
77.6
77.6
77.78
77.59
77.72
77.74
77.63
77.75
77.71
77.97
77.63
77.86
77.84
77.83
77.74
77.89
78.05
77.9
78.11
77.94
77.97
78.2
77.96
77.99
78.13
77.91
78.06
78.02
77.97
78.23
78.04
78.17
78.13
78.27
78.24
78.19
78.03
78.23
78.19
78.36
78.11
78.15
78.26
78.14
78.36
78.31
78.2
78.36
78.14
78.27
78.23
78.48
78.48
78.55
78.5
78.28
78.25
78.14
78.54
78.38
78.29
78.43
78.2
78.66
78.44
78.37
78.66
78.64
78.46
78.68
78.52
