301
200
800
3
128
2
.790008
.87001
.830002
.920013
.930008
.820007
.920013
.890015
.780014
.800003
.750015
.810013
.76001
.790008
.750015
.740005
.720001
.76001
.730011
.710007
.720001
.680008
.720001
.670013
.650009
.650009
.640015
.61
.650009
.630005
.62001
.600006
.61
.590011
.580002
.580002
.600006
.590011
.590011
.600006
.600006
.62001
.61
.62001
.61
.62001
.61
.640015
.62001
.600006
.600006
.62001
.630005
1.19
4.45001
11.5
22.12
33.18
42.7
49.75
53.64
56.28
58.21
60.19
61.23
62.43
63.67
64.47
65
66.02
66.61
67.73
68.51
69.22
69.13
70.07
70.53
70.41
70.71
71.65
71.22
71.29
71.63
71.86
72.31
72.5
72.47
72.82
72.88
73.07
73.53
73.18
73.53
74.23
73.91
72.42
73.79
73.89
73.87
74.05
74.12
74.45
74.26
74.51
74.25
74.37
74.58
74.73
74.68
74.85
74.74
74.82
74.98
75.09
74.87
75.17
75.17
75.12
75.28
75.35
75.45
75.31
75.5
75.48
75.59
75.47
75.6
75.56
75.68
75.65
75.59
75.85
75.88
75.82
76.01
76
76.02
76.19
76.15
76.04
76.15
76.17
76.3
76.34
76.35
76.31
76.41
76.36
76.44
76.49
76.42
76.54
76.44
76.54
76.56
76.51
76.5
76.57
76.63
76.54
76.71
76.7
76.69
76.72
76.79
76.75
76.79
76.89
76.78
76.84
76.85
76.91
76.96
77.04
76.98
76.98
76.93
76.93
77.23
77.05
77.07
77.13
76.99
77.13
77.17
77.22
77.11
77.2
77.21
77.16
77.2
77.29
77.36
77.15
77.48
77.31
77.3
77.39
77.29
77.41
77.45
77.41
77.52
77.5
77.36
77.63
77.36
77.57
77.47
77.71
77.55
77.56
77.51
77.55
77.57
77.61
77.58
77.68
77.58
77.7
77.8
77.69
77.53
77.75
77.71
77.68
77.9
77.91
77.85
77.72
77.79
77.6
77.76
77.7
77.89
77.69
77.68
77.73
77.82
77.91
77.93
77.87
77.8
77.83
77.92
78.05
77.93
77.9
77.88
77.84
78.05
78.05
78.05
78.03
77.86
77.95
77.79
77.92
77.91
78.25
77.95
77.82
78.12
78.23
77.98
78.04
78.28
78.21
78.08
78.26
78.07
78.27
78.22
77.97
77.88
78.39
78.3
78.24
78.05
77.95
78.09
78.51
78.31
78.24
78.13
78.24
78.17
78.1
78.27
78.22
78.27
78.33
78.22
78.37
78.23
78.31
78.27
78.4
78.48
78.45
78.2
