301
200
800
3
128
2
.810013
.750015
.650009
.87001
.810013
.800003
.770004
.720001
.810013
.800003
.780014
.720001
.76001
.700012
.62001
.750015
.690002
.740005
.710007
.670013
.640015
.680008
.650009
.630005
.61
.62001
.650009
.640015
.61
.570007
.570007
.570007
.560013
.570007
.570007
.560013
.550003
.580002
.580002
.590011
.590011
.580002
.580002
.580002
.560013
.590011
.61
.580002
.580002
.590011
.580002
.560013
.61
1.08
4.07001
10.9
21.29
32.14
42.07
49.43
53.01
55.43
57.5
59.33
60.78
61.58
62.89
63.38
64.53
65.74
65.99
66.52
67.2
67.45
69.1
68.57
69.29
69.35
70.13
70.04
70.32
70.74
70.78
71.42
71.25
71.75
71.75
72.13
72.44
72.32
72.52
72.15
72.15
72.53
72.76
72.67
72.82
73.04
72.79
73.39
73.34
73.55
73.57
73.38
73.62
73.53
73.59
73.94
74.03
73.98
74.16
74.06
74.13
74.36
74.39
74.42
74.5
74.39
74.59
74.7
74.75
74.74
74.83
74.83
74.9
75.01
74.88
74.98
75.03
75.09
75.08
75.28
75.16
75.09
75.18
75.3
75.36
75.54
75.44
75.63
75.57
75.64
75.66
75.76
75.67
75.66
75.8
75.8
75.77
75.84
75.88
75.9
75.96
75.99
75.95
75.97
76.14
76.04
76.1
76.11
76.14
76.19
76.26
76.2
76.34
76.2
76.34
76.32
76.39
76.26
76.34
76.42
76.43
76.54
76.54
76.54
76.56
76.5
76.71
76.49
76.65
76.77
76.65
76.66
76.57
76.69
76.78
76.81
76.93
76.81
76.91
76.73
76.82
77.01
76.98
76.94
77.04
76.85
77
77
76.82
77.02
77.1
76.99
77.29
77.14
77.2
77.18
77.17
77.02
77.17
77.19
77.22
77.04
77.13
77.27
77.34
77.31
77.41
77.43
77.3
77.4
77.34
77.32
77.49
77.42
77.43
77.28
77.59
77.41
77.46
77.37
77.36
77.47
77.58
77.66
77.4
77.42
77.45
77.49
77.51
77.46
77.6
77.45
77.59
77.61
77.74
77.73
77.71
77.9
77.64
77.84
77.57
77.55
77.74
77.95
77.71
77.77
77.96
77.68
77.94
77.69
77.87
77.83
77.66
77.88
77.86
77.96
77.87
77.91
77.79
77.94
78.04
78.1
77.92
77.73
78.07
78.09
77.8
77.95
77.91
78
77.91
77.95
78.01
77.83
78.1
77.79
78.03
77.96
77.99
78.05
78.12
78.26
78.09
78.29
78.24
78.02
78.09
78.02
78.2
